-19785
-20141
-20066
-21089
-20952
-21131
-22285
-22544
-21849
-22281
-22070
-21863
-21702
-22764
-22529
-21931
-21457
-22618
-21985
-21256
-21849
-22541
-22013
-21534
-21572
-20949
-20856
-20856
-20590
-20324
-20302
-20554
-19476
-19733
-20129
-20684
-15704
-15083
-16040
-16599
-17091
-17113
-17186
-17111
-16631
-15016
-13167
-12130
-11289
-10900
-11126
-11011
-10033
-9209
-8596
-7963
-6646
-6081
-5050
-5267
-5842
-6659
-6958
-7043
-7067
-6682
-5240
-3567
-2826
-1956
-691
-33
121
423
669
1105
1451
1876
1642
2181
2366
1626
980
829
511
514
619
687
2071
3294
3774
4777
4734
5013
5813
6262
6359
6847
7437
7926
7629
8638
7253
6111
5479
5453
5249
4916
4959
6564
8239
8105
8565
9543
10028
10125
10626
10886
11312
11985
12278
12667
14049
14812
14477
14673
15122
15984
17364
18627
20168
23464
26480
29651
33076
35600
37791
40290
43477
47190
50115
53113
56342
59537
109473
107948
105448
103826
102570
100773
99281
97549
95991
95853
94599
92483
90612
88367
86410
83828
80822
78442
75732
72672
69144
66456
60297
56729
52233
48486
45552
43318
40426
38213
35785
32964
30390
27928
1840
-905
-4147
-6621
-8811
-11473
-14057
-16171
-17311
-17812
-19067
-20937
-22356
-24068
-25834
-27886
-29699
-31521
-33661
-35342
-37011
-38231
-40806
-43526
-46504
-48334
-50109
-51834
-53237
-54084
-53782
-54100
-54234
-54300
-53811
-54400
-54306
-54537
-54836
-55204
-54533
-54375
-54418
-54477
-54544
-55543
-56122
-56245
-56254
-56506
-56245
-54475
-52150
-50211
-49121
-48351
-47328
-46011
-44698
-43051
-41490
-40629
-39259
-38397
-35082
-35138
-35292
-35152
-34292
-33036
-32681
-31835
-30456
-28680
-27278
-26152
-24436
-23202
-22780
-21934
-21129
-20638
-20139
-19804
-19966
-19036
-19721
-20267
-20672
-20917
-21074
-21492
-20988
-18664
-14974
-5008
15938
37098
52240
62183
67883
70583
71494
71378
69736
66728
59116
54442
48314
42508
37079
31940
27179
22525
17954
14092
11389
8624
5443
2221
-842
-3937
-6856
-10319
-13554
-16212
-19404
-22118
-49535
-49733
-51487
-52501
-53127
-53458
-53686
-53481
-53153
-52046
-50824
-49771
-49215
-49061
-48291
-47422
-46827
-46283
-45324
-44406
-43583
-42098
-40359
-40481
-41165
-41199
-41160
-40688
-39698
-38268
-36241
-35129
-33491
-32262
-31294
-30041
-29237
-28841
-27976
-27333
-26984
-23679
-23031
-23391
-23444
-23639
-23149
-22483
-22238
-21115
-18597
-16659
-15166
-13822
-12940
-12060
-10759
-9751
-9244
-9117
-8341
-7264
-6474
-6156
-6318
-6558
-6791
-6736
-6477
-5736
-4702
-3339
-2292
-1091
583
1311
2186
2963
4074
4503
5386
6480
7623
8075
9473
10266
9909
9483
10188
11353
12728
14494
16359
19558
22263
25022
27189
29717
32833
35903
39119
42719
46451
49792
52905
56716
65304
67755
70606
74273
77318
80462
83788
87552
92399
96783
100799
104814
107936
111194
114088
116758
119415
121433
123388
125016
126912
129379
129358
128670
127861
127509
126384
125211
124294
123798
123901
123152
122462
121008
119515
117414
114839
112581
109878
107321
104607
101504
98741
92733
88013
83858
79864
75817
71780
68494
65623
63689
61033
58183
55444
52247
49722
46498
43456
40538
37849
35344
32259
29923
24565
20945
16776
13825
12426
10512
8962
-25872
-29147
-32659
-35661
-37173
-36421
-35334
-34348
-33238
-32911
-32878
-33743
-34557
-35861
-36829
-38099
-39649
-40713
-41820
-43669
-45142
-47871
-49532
-51704
-53103
-54352
-55875
-56923
-57563
-56868
-55773
-56250
-56080
-55946
-56003
-55994
-55834
-55554
-54687
-53600
-52759
-52171
-52189
-51269
-51306
-51281
-51436
-51338
-50932
-50528
-49929
-47877
-46727
-45968
-44757
-44027
-42980
-41796
-40548
-39942
-39940
-39012
-38335
-37470
-39617
-39083
-27849
-28797
-29543
-29514
-29447
-29566
-30003
-29989
-28661
-26834
-25387
-24342
-23047
-22762
-22351
-21138
-20625
-20612
-20504
-20392
-19653
-8469
-9067
-10073
-9861
-9615
-9837
-9486
-8717
-7422
-5974
-4474
-3267
-2904
-2576
-1534
-561
38
836
1593
2030
2956
2926
3019
1459
931
603
408
1576
2932
3556
4385
4894
5267
6429
7058
8981
7974
7343
7121
7006
6859
6596
6673
9841
14979
18608
20889
22181
23271
23879
24048
24284
24449
23701
22963
22358
20856
19929
17417
16053
14470
13752
12962
11321
10767
11609
11387
11394
11413
11394
11614
12058
11745
13116
13813
13890
14279
14789
17286
17304
17763
18956
20313
22056
24207
26746
31013
35585
39201
43478
47416
50796
54778
58316
62589
66624
70784
74590
78532
86573
89460
91899
94801
98005
101242
103696
106631
110183
114191
117281
119364
121272
122944
124563
125666
125844
126946
126985
127173
126629
63661
59176
54568
50237
46190
42693
39418
36517
34189
31854
29721
27523
24855
21969
19219
17426
15625
13482
11297
8905
5706
1009
-866
-4155
-40251
-39987
-40857
-40709
-62106
-63919
-64739
-65099
-65538
-66018
-65598
-64772
-63554
-62131
-61224
-60729
-60348
-59346
-58568
-58035
-57219
-56879
-56324
-55394
-54369
-52389
-52527
-52413
-52461
-52037
-51152
-50191
-49401
-47562
-45394
-43447
-42108
-40750
-39967
-39620
-38274
-37410
-37018
-36317
-36094
-35422
-33971
-34048
-35517
-36120
-36526
-36372
-34882
-33464
-32615
-32452
-32013
-31991
-28052
-28380
-29492
-30467
-30956
-31742
-31803
-31816
-30237
-29102
-28194
-27396
-26334
-25854
-25714
-25606
-25600
-25651
-25411
-25169
-25157
-24752
-25234
-26531
-27229
-27092
-27494
-27769
-28336
-27739
-26451
-25626
-24682
-23872
-23237
-23579
-23344
-23032
-23197
-23019
-22447
-22287
-22119
-21702
-22815
-23376
-23597
-24152
-24382
-24540
-24113
-22601
-21612
-20618
-20042
-18934
-17815
-17521
-17127
-16491
-16319
-16046
-15174
-14813
-15019
-15577
-16052
-16169
-16177
-15765
-16266
-16246
-14943
-13234
-12067
-11268
-10005
-9239
-8851
-8248
-7239
-5479
-4271
-3844
-2727
-1709
-799
-1887
-2814
-3257
-2542
-1540
-1002
-1111
-1167
1592
843
-802
-1733
-2326
-2593
-3221
-3179
-2249
-924
-43
753
1259
1855
2208
2651
3533
4157
4111
3953
3826
4234
3059
2629
2381
2696
3524
3800
4929
7466
9309
11448
13747
16133
16349
14957
14412
14660
15658
17396
20005
23109
30419
34018
36969
40868
44418
48098
52400
56650
62019
67704
73100
77375
81817
86711
91351
95511
98820
102475
105936
109125
111592
116318
117977
118604
118828
119159
119881
120154
120368
120828
121618
121851
121521
121156
120375
119281
118011
116330
115056
113301
111344
108343
105394
99438
96199
92264
88737
84861
81238
77569
74275
72016
69623
67343
64853
61469
58231
54934
52280
49111
46559
43408
40066
37014
31056
27979
23928
20199
16878
13748
11008
8160
5711
5392
3641
2015
399
-1366
-3637
-6056
-8608
-10949
-12781
-15025
-17285
-19926
-49094
-49798
-51613
-53066
-54231
-54485
-54473
-55010
-55465
-54132
-53391
-52563
-51756
-50599
-49909
-49441
-49421
-48104
-47497
-46842
-46017
-45424
-44302
-43996
-44409
-44477
-44141
-43358
-42016
-40253
-38514
-36823
-35248
-33931
-32831
-31781
-30406
-29590
-25787
-25819
-26962
-27819
-28227
-28842
-28722
-28326
-27846
-26242
-25504
-24602
-23709
-23299
-22892
-22989
-22774
-22459
-22193
-22877
-22731
-22802
-22716
-23954
-25402
-26187
-26597
-27076
-27732
-27663
-26026
-25296
-24712
-24251
-23653
-23087
-22436
-22282
-22376
-22685
-22302
-22396
-23375
-23670
-24306
-26011
-27187
-27956
-28601
-28871
-28922
-28683
-27343
-26417
-25487
-24582
-24306
-24299
-24317
-23396
-22714
-21829
-21623
-21632
-20736
-20606
-21304
-22104
-22479
-22508
-22556
-22361
-21802
-20377
-19671
-18427
-17386
-16307
-16118
-15978
-15405
-14875
-14211
-13124
-12484
-12106
-1653
-2632
-3396
-4291
-4752
-4436
-4454
-3809
-2521
-1754
-607
19
346
1350
2173
2503
2442
2613
2988
3039
3123
4589
4461
3503
4067
8147
8173
7241
5988
5092
4349
4668
4856
4703
6626
7923
9280
10288
11418
12393
11238
9252
8264
8680
9309
10551
12891
17925
20221
22366
24935
27744
30481
34762
39129
44548
50418
56255
61399
66757
72153
77039
81884
86809
91239
95443
100276
104813
112304
115139
117464
120383
122663
124911
126781
128478
130753
133782
135768
136884
137653
137986
137934
137780
137316
136594
135271
134014
132739
130963
126508
123048
118861
115506
111486
108061
104473
100946
98333
95724
93286
90009
87128
84259
80939
77472
74096
70765
67737
64536
60573
53978
49831
45134
40728
36131
31995
28138
24188
21236
19491
17674
15769
13385
10783
8698
6745
4479
2055
-772
-3049
-5084
-7057
-12089
-15482
-19192
-22177
-25237
-28034
-30459
-32774
-34211
-35723
-37225
-38779
-40469
-42659
-44320
-46602
-48529
-50462
-52636
-54847
-56197
-66313
-66682
-65942
-44021
-43462
-43836
-43332
-43142
-42612
-40468
-38968
-37676
-37016
-35857
-28761
-29679
-30621
-31101
-31170
-31856
-32674
-32530
-31621
-30961
-30070
-30134
-29702
-28981
-28709
-29072
-29677
-29148
-28757
-28574
-28757
-28354
-28949
-30501
-30922
-31909
-32465
-32639
-32869
-32629
-31439
-30496
-29627
-29031
-28891
-28563
-27779
-27652
-27591
-26826
-26762
-26677
-26074
-25546
-27045
-27879
-28171
-28697
-28576
-28792
-28233
-26366
-24886
-23966
-23204
-23196
-22571
-22172
-21681
-20997
-20462
-19388
-18757
-18996
-17646
-18072
-18807
-19372
-19629
-19564
-19274
-18492
-17635
-15682
-14641
-14069
-13002
-11925
-10846
-10219
-9859
-9022
-8297
-7989
-8015
-7276
-7199
-7496
-7921
-8199
-8029
-7471
-7447
-7144
-5159
-3547
-2303
-1355
-337
758
1048
1714
2324
1981
2347
2730
3385
3921
3358
2264
1973
1414
1355
1533
1636
2901
4698
5816
6917
6950
7546
8284
8559
8944
9148
9491
9713
9656
12152
11376
9956
8744
8433
8362
8100
8144
9433
10395
11511
13306
14841
16316
17631
19846
21355
23142
25593
27162
29475
35135
37848
40091
43460
46848
50401
54234
58575
63853
68631
73974
79627
83836
88176
92821
97202
101161
105805
110377
127330
128878
130049
132123
133279
134603
136061
137153
139307
140750
142202
142988
143053
143522
143464
142699
141126
139721
138199
136561
134451
129722
126771
122633
118779
115522
112239
108641
104649
101537
99785
97214
94103
90882
87593
83888
80415
76747
73491
69279
65054
61566
58030
50414
45533
41019
36927
32906
29382
25943
22764
21288
19863
17506
15278
12937
10389
7845
5596
3081
469
-1822
-4186
-6546
-11229
-14656
-18239
-21075
-24076
-26955
-30273
-32941
-35058
-35591
-37228
-39411
-41370
-43657
-46272
-48007
-49823
-51725
-54025
-56230
-58091
-59449
-63661
-66681
-68859
-70615
-72689
-74147
-75645
-76614
-76096
-76060
-76160
-76266
-75916
-75935
-76292
-75808
-75820
-75861
-76051
-75858
-75166
-74943
-74933
-75772
-76034
-75953
-74829
-72966
-71591
-70449
-68421
-67270
-66125
-51506
-52262
-52101
-51169
-49886
-48577
-47369
-38261
-38501
-39646
-39921
-40502
-41019
-40984
-39675
-38627
-37616
-37191
-36846
-36626
-36129
-35740
-35855
-35512
-32171
-22399
-22039
-23129
-23536
-23764
-23607
-22995
-22509
-21766
-19708
-17921
-16921
-15998
-15108
-14470
-13977
-12991
-11885
-12185
-11931
-11118
-10758
-10491
-10771
-11570
-11582
-11311
-11416
-11010
-10257
-8811
-7069
-5772
-4567
-3579
-2766
-1558
-1167
-649
-277
198
-120
788
1865
1963
1189
883
911
1005
826
1154
1771
3385
4434
4979
5712
6710
8011
8624
9202
10081
10410
10439
10199
10967
11034
10587
9610
9116
8744
8333
8250
8519
9206
10857
11704
12274
13131
13901
14934
14820
15569
16180
16350
16724
17498
18681
19713
19386
19305
20431
21468
23546
26743
30022
32409
35706
39368
42006
45007
48548
86875
90883
93961
97447
100913
104533
108607
112159
116412
121154
124998
128885
132665
135518
138459
140167
141893
143488
144268
145309
145988
146673
146693
139513
137015
133754
130349
126823
124806
122550
120159
117135
113421
90649
86963
82106
77901
73936
70159
66341
62999
60594
56648
52917
50144
47151
43626
40998
37790
33967
29356
26028
23611
21083
18402
15406
12723
9212
5429
3363
1702
-874
-2459
-4382
-7497
-11449
-14149
-15740
-17742
-20106
-22546
-24732
-28071
-31747
-33255
-34820
-37512
-39882
-41954
-44732
-48691
-52141
-54499
-55609
-57221
-58689
-60860
-64171
-66474
-67064
-67986
-68967
-69902
-70223
-72139
-74636
-76492
-76748
-76687
-77277
-77257
-77807
-79084
-79987
-79989
-79224
-77958
-77201
-76828
-77044
-78326
-78281
-77187
-75941
-74909
-73329
-71881
-72042
-71451
-70134
-69030
-67516
-65703
-64594
-64367
-63732
-61747
-60298
-58224
-56886
-55517
-54204
-53981
-53861
-53701
-52803
-51880
-49672
-48284
-47281
-46790
-45499
-43799
-42330
-41102
-39919
-39116
-39357
-39312
-38694
-37067
-35950
-36014
-35631
-35631
-36320
-35801
-35524
-35962
-35451
-34900
-35265
-36300
-36611
-36684
-35724
-34748
-34748
-35015
-35396
-35834
-35291
-34239
-34024
-34504
-34586
-34888
-35588
-36171
-35844
-35126
-35281
-35012
-35016
-35641
-36116
-35210
-34627
-34310
-33778
-33529
-33582
-34497
-34681
-34051
-32647
-31232
-30261
-29742
-30345
-31177
-30506
-29338
-28562
-28217
-27815
-27386
-28069
-28474
-27584
-26083
-25086
-24247
-23721
-24416
-25430
-24104
-22738
-21712
-21029
-20864
-20933
-21685
-22253
-21885
-19951
-19268
-18429
-17792
-17351
-16429
-16632
-16179
-15872
-15210
-14577
-14412
-15247
-15301
-15143
-14896
-14446
-13662
-12765
-12429
-11342
-10439
-9446
-8511
-7549
-6924
-6819
-7309
-7243
-6499
-5216
-4173
-3121
-1998
-2381
-3026
-1358
-366
583
1003
1818
2164
1174
600
1474
2100
2314
2846
3249
2499
2001
2436
3911
4564
4851
5264
6028
6854
6956
7309
7711
8329
8536
9343
8918
7818
7818
7700
7949
8238
9164
9019
8821
9835
10491
10308
10669
10945
11697
10853
9618
8979
9453
10446
11050
11474
11096
9961
10187
11484
11931
12361
12974
12941
11535
10628
10638
11850
12761
12679
13027
13174
12221
12718
14048
14940
16128
17290
18803
19715
20200
22384
25624
27968
31431
34966
38304
40369
43881
48524
53094
57388
61633
66268
69594
73309
78359
84192
89266
94558
99297
102973
105857
108941
113235
117787
121589
126123
129238
130869
133248
136403
139888
142430
144279
145871
146701
146676
146973
147436
147616
147656
147684
146951
144544
143509
143373
141922
139472
136715
134352
131083
127049
123238
119831
118087
115205
112121
108745
104230
100447
97161
94432
91193
87765
84879
80688
75453
71444
68187
65053
62329
58962
55026
49834
45393
42906
40758
37296
33978
31068
27400
22516
18864
16573
13997
11217
8706
6264
2699
-476
-2606
-4444
-6912
-9289
-11449
-14584
-17212
-19221
-21524
-24261
-26901
-29563
-32984
-36658
-39958
-43227
-45704
-48397
-50789
-52234
-53913
-55737
-57286
-59087
-60679
-62264
-63577
-64186
-66792
-69336
-71088
-71609
-72282
-72730
-73247
-74736
-77037
-77614
-76781
-76599
-76780
-76808
-77208
-78507
-79082
-79729
-78273
-76954
-76132
-75121
-75662
-76078
-74458
-72660
-71402
-69844
-68757
-67965
-67739
-67440
-66304
-64375
-62681
-61205
-59553
-59337
-58903
-57938
-56019
-54636
-53127
-51728
-50920
-51234
-50990
-50037
-47939
-47025
-46732
-45911
-45866
-46017
-44898
-43374
-42359
-42430
-42157
-41565
-42046
-41922
-40949
-39726
-39378
-39206
-38446
-39112
-39894
-38977
-37999
-37829
-37079
-35931
-35686
-36623
-37319
-37317
-36409
-36089
-35342
-35135
-35424
-36727
-37229
-36567
-35805
-35002
-35466
-35912
-36868
-37410
-36112
-35342
-35182
-35522
-35177
-36096
-36951
-36322
-35156
-34156
-33105
-32227
-32281
-33703
-33996
-33304
-32682
-31846
-31407
-30680
-30811
-31081
-30418
-29418
-28622
-27754
-26720
-26394
-27235
-27418
-25896
-24758
-24182
-24064
-23854
-24536
-25463
-25737
-24220
-22714
-21997
-21181
-21385
-22705
-22529
-21025
-19894
-18888
-17586
-17437
-18415
-18897
-18139
-16669
-15435
-14811
-14284
-14089
-14691
-14716
-13508
-12630
-11866
-11303
-11064
-12015
-12509
-12184
-10853
-9619
-8582
-7102
-6647
-6999
-6851
-5557
-4290
-3127
-2504
-2042
-2067
-2374
-2088
-788
-586
-136
529
323
-694
-877
528
1184
1964
2563
2734
1886
1618
2393
3561
4881
5905
6805
6871
5809
5898
7518
8199
8709
9148
9682
8668
8059
8471
8670
8942
9734
9764
9548
8913
8315
8765
9465
9704
10705
10471
9649
8961
10347
10948
11376
12044
12630
12625
11427
11432
12031
13189
13468
13906
14423
13654
14384
15952
16464
16798
17256
18623
18374
17230
17060
17007
18756
21124
23682
26342
27951
30125
33968
37787
41446
45638
50588
53970
56866
60905
66479
71809
76458
82019
86950
90009
94058
99681
106061
110741
115328
119949
123886
126828
130063
135104
138989
142614
146482
149093
150210
151761
153559
155726
157796
159784
160876
161392
162254
161822
161023
160516
159574
158113
156583
153786
150737
147903
145193
142234
139418
137706
134854
132453
129914
126113
122823
119151
115919
112203
106988
102228
97844
94271
91251
87374
83785
79316
73904
70173
66836
63526
60038
56331
52389
47928
43653
39435
36993
34803
32216
28775
24069
19888
17719
15802
12634
9124
6072
3480
-69
-3328
-5917
-7586
-9659
-11702
-14381
-18268
-21936
-23881
-26304
-29114
-31294
-32865
-35762
-39996
-41519
-41966
-41766
-42261
-43030
-44409
-47765
-51051
-52324
-53336
-54860
-56591
-58262
-60339
-63674
-66259
-67532
-67972
-69018
-69446
-70161
-72775
-74941
-76074
-76138
-76750
-77054
-76860
-77043
-78462
-79034
-78586
-78192
-77774
-77462
-76209
-76539
-77260
-77132
-75939
-74202
-72859
-71934
-71721
-72196
-71926
-70386
-69065
-67976
-66231
-65263
-65192
-64879
-63859
-62036
-60358
-58909
-57157
-56330
-57249
-57127
-55838
-54151
-52357
-51276
-50488
-50542
-50821
-50150
-49301
-48592
-48133
-47392
-47127
-48078
-48264
-47491
-47354
-46427
-45542
-45662
-46377
-46943
-47227
-46005
-45199
-44852
-44286
-44438
-45976
-46612
-45261
-44456
-44031
-44512
-43640
-44234
-45382
-44970
-43516
-43111
-43376
-42956
-43672
-44831
-44811
-43779
-43129
-42821
-42211
-42249
-43622
-44432
-44191
-42614
-42116
-41527
-41776
-42242
-42922
-42697
-41587
-40457
-38911
-38181
-37800
-38416
-38444
-37361
-35846
-34155
-32702
-31114
-30641
-31336
-31171
-29128
-27981
-27544
-27118
-25971
-26356
-27381
-27754
-26626
-26108
-25540
-25418
-25572
-26450
-26934
-25795
-25071
-24322
-23537
-22845
-24307
-27567
-29297
-29878
-29794
-30211
-29679
-29891
-30479
-30219
-28912
-28039
-27102
-25814
-24957
-25245
-25242
-23692
-21792
-20342
-19742
-18085
-17902
-17990
-17659
-16440
-15434
-14527
-13106
-11569
-11631
-10425
-8798
-7045
-5786
-4665
-3532
-3536
-4053
-4009
-3475
-3197
-1521
-131
876
1353
2263
4088
4918
4911
5446
6730
6574
5189
5016
6234
7338
8241
9621
9398
8365
7613
8381
9188
10029
10090
9949
9514
8802
8625
9169
10054
10353
10510
10760
10015
9404
10276
11461
11916
12184
13186
13224
14459
15649
16823
17496
18699
20133
21153
21139
21701
23128
24991
26713
29069
33319
36461
41497
45864
50173
54301
59231
64026
68225
72113
76103
80929
87068
92554
97747
103295
107921
112280
118011
123403
128566
133449
137994
141977
145031
147919
150968
155113
158734
161805
163779
164965
166124
167970
169806
170727
171528
171631
171006
169714
168424
167549
168429
167603
165313
163579
160214
156399
154693
152631
150143
147477
143690
139294
134331
129598
125723
123353
120228
115749
111618
106719
101376
97162
93754
89992
85661
81343
76788
71268
65830
61985
59206
55771
51614
47910
43156
38198
33900
30854
27844
24347
21362
17551
12895
9213
6554
3284
174
-2345
-5275
-8456
-11386
-14437
-16916
-19519
-20092
-21082
-22712
-26030
-29388
-32461
-35603
-38488
-41403
-43269
-46409
-48630
-50722
-52930
-55389
-57603
-59869
-62687
-66109
-69523
-72281
-72782
-73894
-75286
-76740
-79325
-81305
-82262
-82498
-82829
-83252
-84121
-85362
-86671
-87210
-86495
-86029
-85498
-85085
-83695
-84718
-85650
-85277
-84015
-82835
-82145
-80571
-79479
-77736
-76458
-75736
-75081
-73893
-72427
-70971
-71393
-71138
-70396
-69497
-68849
-67839
-64802
-63997
-62980
-60368
-57996
-56526
-55677
-54657
-54270
-54820
-54836
-54332
-52549
-50935
-50067
-49246
-49132
-49498
-48884
-47014
-46235
-45956
-45944
-45267
-45771
-46516
-45816
-45119
-44252
-43247
-42807
-43200
-44707
-44696
-43334
-43080
-43172
-43217
-43465
-43684
-43348
-42769
-43189
-43611
-43847
-43612
-44367
-45904
-46123
-46504
-47071
-47488
-47001
-46342
-46914
-46229
-45616
-45032
-43977
-42989
-41887
-42408
-43746
-44395
-44626
-43327
-42412
-41674
-41212
-42053
-42041
-40801
-40484
-39894
-39252
-38103
-38879
-39986
-39771
-38807
-37542
-36249
-36013
-35196
-35036
-34217
-33363
-32889
-32499
-32181
-31621
-32416
-32758
-32902
-33026
-32783
-31767
-30422
-29548
-29314
-28384
-27520
-28448
-30217
-31604
-32953
-34131
-35129
-35625
-34833
-33143
-31504
-29989
-29036
-29543
-29946
-28729
-27191
-26128
-24681
-23092
-22559
-22522
-21312
-18059
-15979
-15136
-13991
-13012
-13441
-12964
-11507
-10347
-8991
-7843
-6784
-6977
-8022
-7708
-6172
-4868
-3698
-2412
-1932
-2360
-2911
-1481
236
1612
2529
3041
3109
2826
3568
5451
6324
7146
7647
7651
6903
6984
8266
10254
11405
11948
12036
11307
10148
9999
11129
11932
13096
13998
13629
12575
12775
14281
14714
13340
12285
11031
9342
8633
8141
8938
9462
9861
10516
11515
11118
10926
12403
14148
16350
18826
20331
21351
22787
24625
28968
33463
37289
40332
43896
46774
50403
55488
61206
67092
72058
78064
82956
88117
93633
100771
107246
112659
118808
123989
128438
133403
140384
146494
151808
157299
162391
165463
167934
171686
176398
179551
182067
185166
187227
187834
189210
190566
191476
192084
192653
192946
192098
191294
190744
190877
189813
187865
185146
182281
178312
175323
173204
169959
166674
163254
159429
154709
149379
145283
141612
137321
134188
130664
125290
118890
113491
109691
105681
101176
96259
91087
85486
79496
74543
71186
66792
62634
59264
54629
49338
44871
41047
37885
34406
31566
27981
22818
17903
14491
11139
7633
3932
565
-3337
-6705
-7655
-7901
-8967
-10841
-13140
-16127
-20778
-25152
-28511
-31902
-35006
-37667
-41318
-45624
-51227
-55575
-58795
-61326
-64521
-67557
-70357
-74279
-77166
-78949
-80160
-82191
-83784
-85041
-87109
-88917
-90461
-91172
-91973
-93122
-93895
-93989
-95642
-97194
-97481
-96852
-96042
-95271
-95206
-95514
-95949
-94776
-93431
-92160
-90817
-89831
-88527
-88912
-88272
-86959
-85555
-83334
-81566
-79742
-78889
-78846
-76536
-74647
-72522
-70942
-70042
-68441
-68071
-67876
-66947
-65195
-63968
-62988
-61779
-61104
-61267
-59865
-57676
-57059
-56290
-55302
-54442
-54942
-55402
-54649
-53632
-52904
-52389
-52198
-52866
-53367
-53449
-52289
-51150
-50604
-49088
-49211
-50695
-49946
-49847
-50391
-50847
-50859
-50640
-51937
-54093
-54972
-55576
-56108
-56044
-55170
-53911
-54325
-53132
-52531
-52677
-52531
-52629
-52740
-53350
-54069
-55020
-54954
-53802
-52839
-52091
-51862
-52187
-52661
-51965
-50854
-50356
-49590
-49052
-49708
-50620
-50014
-48167
-47274
-46711
-46457
-46041
-46974
-47646
-46684
-45948
-44947
-44012
-43466
-43511
-43917
-43387
-41284
-39539
-38277
-36552
-35957
-37164
-37216
-35998
-35073
-34680
-33985
-33370
-33453
-33475
-32617
-30651
-29131
-27452
-26128
-25637
-25916
-26115
-24992
-23891
-22556
-21046
-19259
-20945
-24964
-26737
-26521
-26724
-26284
-26106
-26416
-27362
-27170
-25434
-24454
-23616
-22141
-20741
-20564
-20170
-19057
-17724
-16119
-15066
-13632
-13064
-13287
-13084
-11582
-10132
-9335
-7474
-6004
-6520
-6517
-5711
-4071
-2702
-1416
-782
-881
-1814
-1781
-226
569
1652
2414
2939
2563
1979
2071
3700
4490
5224
6298
6767
5878
5703
7261
7351
7914
8934
9258
8220
7469
7534
8812
10209
11396
12094
12404
11933
12097
13279
14876
16158
16927
17774
17511
17702
18841
20725
23164
24651
27230
29546
31108
33779
38266
43072
47313
51514
56010
59868
63862
68768
75703
82407
89353
95612
101662
106571
112006
118799
124615
130729
137043
143051
147505
151908
157613
163418
168516
173961
178192
181867
184496
187162
191316
194451
197261
199531
201938
202261
202554
203836
204561
204277
203280
202646
201329
199613
198134
196456
194718
192305
189872
186928
182326
177188
173299
170345
166588
162376
158147
153049
146914
141464
136836
132854
128538
123876
118981
112560
106654
101986
97308
92525
87773
82388
76543
70773
65786
61714
57508
53158
48475
43256
37438
31478
26954
22971
19821
16428
12866
10579
8818
6861
4499
1073
-1491
-4255
-8073
-12416
-17719
-22889
-27541
-31646
-35147
-38251
-43490
-48639
-51937
-55459
-58829
-62515
-65928
-69640
-74006
-77781
-81074
-83261
-84990
-86998
-88792
-91381
-95022
-97357
-98420
-99757
-100661
-101747
-102496
-104859
-106166
-106161
-106490
-106399
-105562
-105544
-106161
-107648
-107617
-106607
-104986
-104061
-103365
-102699
-101122
-99855
-99203
-98452
-96945
-95972
-94801
-94571
-94102
-93350
-92641
-91446
-89046
-85789
-84067
-82922
-80609
-78684
-76946
-74289
-72283
-70991
-70232
-70204
-69390
-67823
-66147
-64452
-63400
-62775
-62701
-62757
-61517
-59906
-58769
-57811
-57015
-57329
-58054
-58301
-57089
-55997
-55476
-55146
-55022
-56039
-56165
-54978
-55086
-55099
-54632
-54416
-55037
-56044
-55689
-54686
-54104
-53974
-53874
-53774
-54682
-54999
-53691
-53269
-52675
-52571
-53018
-53860
-54096
-53903
-52740
-51810
-51692
-51044
-50894
-51722
-52492
-52236
-51330
-51069
-50803
-50184
-51069
-51682
-51261
-49666
-48976
-47933
-46781
-46059
-46939
-47909
-47399
-46541
-45815
-44420
-43349
-43812
-43994
-43218
-42254
-41381
-40214
-39172
-38942
-39470
-39927
-39024
-37729
-36347
-35297
-34205
-34561
-34711
-34315
-32998
-31916
-30880
-29875
-28898
-29644
-28921
-27450
-25601
-24247
-23577
-23189
-23032
-23190
-23047
-21969
-21531
-20282
-18998
-18549
-18906
-18170
-15814
-14024
-12387
-11509
-10887
-11312
-11816
-11175
-9376
-8607
-7626
-6457
-6215
-7525
-7379
-5517
-4179
-3497
-2969
-3001
-3602
-3742
-3211
-1409
-576
309
818
799
483
613
1889
3580
4731
5856
6111
5169
4438
5351
6492
6989
7549
8586
8439
7445
7606
9361
10620
11691
12049
12570
11962
10763
10727
11819
12185
11984
12662
12489
11776
11506
12569
13618
14147
14853
15157
14023
13608
15026
15886
16878
17821
18419
18798
18699
18632
18754
19368
19567
20401
18798
15755
13501
12702
12828
13996
15345
18344
21578
25726
30461
34734
40003
44967
50605
56273
61083
67025
72717
79518
87208
94230
102239
108878
114743
121608
129494
136680
143685
150966
157523
162479
167801
174021
180670
186047
191314
196829
200076
203367
207673
210690
213623
215965
217624
218365
218349
217788
218049
217755
217374
218393
218277
216261
214029
212588
210283
208434
206261
203555
200118
194838
189715
184946
180996
177129
172383
168147
162665
156152
151458
146648
140814
135133
129965
123596
116696
110371
104454
99655
94963
89868
84700
78427
72372
67753
63403
58599
53964
48464
43352
40966
38988
36843
34318
30824
27399
23954
18631
13242
7799
2234
-2824
-7782
-12349
-15977
-21319
-25174
-28810
-32926
-37418
-41892
-45982
-51228
-56531
-60675
-63521
-66838
-70189
-73274
-75987
-80412
-84572
-86960
-88579
-90517
-92841
-95209
-98156
-100390
-101312
-101212
-101360
-98719
-95564
-93481
-92816
-91516
-89903
-88362
-86550
-85437
-85015
-84790
-83775
-82581
-82154
-81449
-81171
-80679
-80289
-81434
-81869
-81911
-81949
-81615
-81019
-79300
-77986
-76650
-75706
-75231
-74796
-74229
-73006
-72511
-72945
-72915
-72361
-70872
-69814
-67929
-67329
-67689
-67969
-66702
-65719
-65653
-64994
-64930
-65412
-66287
-66802
-65969
-65348
-64331
-63762
-63629
-64371
-65347
-65829
-65012
-65582
-66178
-65927
-66276
-67540
-68296
-66938
-66136
-65994
-66752
-67085
-68115
-68691
-69337
-68352
-67659
-67142
-67674
-67677
-68839
-69631
-69207
-69177
-69813
-69694
-69705
-70535
-71687
-72084
-70975
-70865
-70038
-69454
-69718
-71434
-72524
-71923
-71309
-70843
-70510
-70242
-71307
-72320
-72261
-71391
-71332
-71572
-71275
-71691
-72662
-72720
-71630
-70447
-70147
-69290
-69772
-70536
-70724
-69714
-68145
-66946
-65992
-65251
-64716
-64661
-64677
-62672
-60742
-59526
-58545
-56812
-56859
-56814
-55177
-52993
-52126
-50986
-49004
-47549
-47520
-46310
-44497
-42701
-40706
-39259
-37961
-38199
-37915
-36919
-35134
-33700
-32334
-31744
-31754
-32016
-31577
-29847
-28083
-26139
-24173
-22682
-22254
-21269
-18946
-17779
-17131
-16051
-14880
-15141
-18351
-20801
-22231
-21692
-21198
-20507
-19693
-19918
-19767
-18491
-17180
-15067
-13885
-12556
-11876
-11602
-10856
-9588
-8111
-6747
-5476
-4649
-4225
-3484
-1147
1296
2784
4848
5989
5334
4718
5138
6581
8218
9488
10460
11316
10726
10288
11334
12624
14269
15471
16503
16151
16324
16798
17332
18301
18990
20575
20630
20331
20077
20041
20076
20418
22466
23971
24371
25025
27108
28260
30113
32315
33904
36420
38193
40483
44583
49764
54131
59218
64608
69512
73819
79416
85555
91955
98622
105362
111730
117403
123476
130659
138526
145861
153964
161488
168618
174539
181125
187594
194488
201136
206691
212073
215376
218615
222929
227843
232091
235563
238076
240201
241953
243384
244309
244802
245607
246419
245548
243098
241279
240202
239787
237838
234765
231391
226947
222631
219163
215480
211339
206759
202204
196949
190660
184302
178593
174349
169188
163628
157544
151526
145309
140404
135011
129303
122966
117403
111331
103841
97289
91913
86463
80442
74974
70308
64326
59365
54206
48099
42330
37361
34539
32539
28304
23535
19454
15035
10002
5566
2110
-2732
-6556
-10771
-15215
-20104
-25266
-30301
-35719
-41826
-47739
-53387
-57250
-61785
-66132
-70243
-76067
-81116
-84324
-87341
-90576
-93166
-95712
-99330
-103912
-106708
-109770
-112670
-115007
-116557
-118857
-122092
-124766
-125999
-125119
-124895
-125262
-125904
-126434
-126586
-127359
-127919
-127906
-127446
-127422
-126662
-127464
-128226
-128203
-127687
-126802
-125855
-124022
-123025
-121569
-119269
-117707
-115492
-114081
-112729
-110374
-109619
-108444
-107092
-105004
-102699
-100629
-98015
-95886
-95034
-93921
-91786
-90222
-88354
-86832
-85891
-85882
-85092
-83517
-81711
-80395
-79822
-78817
-77937
-78540
-78814
-77337
-76400
-76888
-76114
-76227
-76817
-77162
-76394
-75219
-74621
-73565
-72752
-72865
-73642
-73472
-71896
-70562
-69791
-69470
-68923
-70277
-71620
-71343
-70864
-69961
-69230
-68691
-69022
-69954
-70411
-69146
-68501
-67917
-67112
-67099
-67954
-68597
-67878
-66094
-65441
-64808
-63097
-63142
-63840
-64003
-62772
-61504
-60632
-59879
-59908
-60430
-60291
-58691
-57777
-57208
-56737
-55865
-54637
-53881
-53047
-52609
-52057
-51252
-51306
-51546
-52216
-53006
-53219
-52976
-52346
-51424
-49061
-48026
-47929
-46201
-45420
-43744
-42681
-40923
-39953
-40416
-40027
-39202
-37696
-36721
-35433
-33811
-33299
-33602
-32805
-30972
-29331
-27608
-26712
-26558
-26506
-26286
-23897
-22614
-21722
-20922
-20059
-19809
-18741
-17044
-16231
-15232
-14694
-13986
-13234
-13250
-12838
-12765
-11925
-10921
-8898
-7874
-7701
-6354
-3547
-1991
-802
258
1404
2011
1028
916
1036
3208
4763
5191
5901
5527
5543
6330
7889
8913
9383
9536
9758
8769
7974
7757
9610
10991
11791
12630
12268
12151
13101
13574
13974
14113
14726
14975
14156
13584
13928
15676
16353
17691
18305
17252
16656
17726
19128
19541
19703
20931
21225
20081
19215
19143
20156
21693
23183
24448
23869
23746
25052
26079
24554
23485
23701
24412
24271
25654
28245
31789
35849
40289
44961
48658
52814
58111
65044
72798
80813
88126
94551
100332
107109
115877
124443
132532
140008
148246
153763
160153
167906
176511
184609
192140
198888
205068
209524
214821
220998
225494
230196
234756
238364
240584
243138
245789
248194
249878
251749
252491
251926
251164
250325
250276
249274
247611
245681
243495
240368
236887
233330
230299
226834
223084
218987
214629
208941
203474
198680
192138
185983
180775
175304
168860
161378
155309
150401
144566
138764
132572
126144
118624
111789
106260
100584
94063
87830
82162
75051
68542
62369
57008
51872
47891
44916
40698
35513
31138
27190
22077
17413
12395
7901
1779
-4277
-8949
-13714
-19281
-24216
-29412
-35594
-42417
-49062
-54375
-58639
-63082
-67386
-72204
-77897
-82562
-86152
-89323
-92875
-96236
-99191
-102347
-106269
-110150
-111718
-112951
-114487
-115793
-116893
-120447
-122124
-122872
-122295
-122542
-122217
-122651
-124076
-125192
-125986
-125511
-124549
-123052
-122170
-120739
-120804
-120263
-118490
-116865
-114331
-112283
-111156
-110109
-109981
-108611
-106522
-104441
-102227
-100182
-99036
-98578
-97926
-95947
-93585
-91385
-89306
-88256
-87380
-87307
-86612
-84417
-82373
-81267
-80590
-79575
-79649
-79374
-78091
-76749
-76337
-75646
-75222
-75241
-76093
-76480
-76539
-75114
-74521
-73793
-73721
-74969
-75604
-75082
-75232
-74657
-74614
-74716
-75099
-76361
-76524
-75366
-75716
-75881
-75364
-75320
-77031
-77886
-77650
-77319
-77356
-76752
-76825
-78047
-79299
-79832
-78900
-77851
-77264
-76477
-76586
-77008
-76659
-76271
-75301
-74999
-74755
-74319
-74002
-73190
-72649
-72891
-72111
-71556
-71987
-71718
-72166
-72352
-72114
-71716
-71090
-69559
-67887
-67362
-66457
-64880
-64197
-63132
-61561
-60665
-60171
-60434
-60420
-60280
-58712
-57022
-55812
-53711
-52951
-52709
-50764
-49060
-47746
-46537
-45154
-44840
-44851
-44421
-42947
-40635
-39327
-37842
-37263
-36781
-36155
-34432
-32387
-31106
-29579
-28402
-27023
-26564
-26328
-24992
-23596
-22484
-20545
-18995
-19507
-20337
-20353
-19681
-18619
-17840
-16031
-14141
-13591
-12126
-10101
-8316
-7594
-5951
-5052
-5642
-5517
-5177
-3763
-1568
104
1187
1826
891
820
1928
3240
4197
5402
6630
6088
5021
5680
7317
8159
9014
9618
9373
8409
8466
9607
10406
11376
11674
11826
11304
10484
10428
11311
12379
13189
14215
14096
13162
13661
14927
15866
16133
16620
17270
16697
16352
17241
19184
20064
21857
23514
24214
24794
26511
29225
32005
33199
33981
36039
37565
39768
43985
49858
56019
61999
68284
74238
79515
85909
94315
102203
109834
117568
125833
133169
140539
148619
157139
165161
173209
180526
186542
191973
197666
204188
209964
215175
220219
224399
227966
231471
234889
239098
242263
245224
247652
247862
247549
247274
247199
246839
246232
245298
243332
239652
236318
234214
231041
228128
224718
219923
215289
210033
205324
201948
198504
193708
188603
182443
175501
169101
163816
157804
151803
145464
139427
133184
125931
119893
114739
109125
104034
99096
93594
87652
82241
76561
70531
64707
59865
54049
47648
42776
39520
35840
31700
27366
23948
20394
15496
11698
7223
2289
-3199
-8398
-13013
-18141
-24615
-30412
-35211
-38597
-43356
-48512
-52181
-58209
-64144
-68144
-72592
-76582
-80734
-84492
-88499
-93352
-96515
-98528
-101324
-103981
-106135
-108179
-111727
-113610
-115314
-117133
-118372
-119039
-119671
-120763
-122701
-124311
-125921
-125132
-124294
-123494
-122991
-123724
-123055
-121426
-120576
-118939
-118359
-117711
-116908
-116649
-115249
-112486
-110146
-107656
-105567
-104747
-104609
-103893
-101601
-99876
-97899
-95834
-93779
-92826
-92257
-90729
-89613
-87971
-85812
-85041
-84247
-83470
-82635
-80624
-78787
-77607
-76442
-75513
-74863
-74463
-73235
-71652
-70975
-70422
-69989
-69849
-70674
-71402
-71698
-72454
-72884
-73146
-71886
-71761
-71112
-69924
-69220
-69550
-70054
-70103
-70131
-71205
-71052
-71201
-70674
-69674
-69747
-70155
-71557
-72527
-71434
-70137
-69118
-68697
-68382
-68409
-70092
-70931
-70187
-68667
-68044
-67811
-67096
-67301
-67613
-66379
-65222
-64721
-64075
-63296
-61814
-61057
-60668
-59834
-59844
-59245
-59111
-58717
-59557
-60034
-59831
-59302
-58892
-58251
-56494
-54809
-54354
-52767
-51195
-49686
-48119
-47445
-46430
-46804
-47336
-47101
-45365
-43534
-42496
-41202
-40025
-40075
-39225
-36968
-36655
-35748
-35066
-34387
-34847
-34863
-34051
-32649
-30869
-30326
-28861
-28481
-29047
-28473
-25752
-23478
-22317
-20825
-19851
-19981
-19711
-19030
-17690
-16299
-14456
-13002
-12926
-13317
-12540
-11354
-10153
-8869
-7596
-6874
-7718
-8023
-7069
-5832
-4857
-3142
-2917
-2234
-2284
-1964
-214
829
1574
3008
3512
2667
2358
3072
3807
4529
6083
6854
6818
5406
5492
6974
8011
9284
9529
9959
9457
8751
9908
11108
11246
12097
12823
12465
11810
11274
12428
13714
14536
15103
15450
15201
15268
16030
17056
18404
19249
20081
20539
20323
20591
23029
25844
27706
29661
32228
31765
31791
34428
37855
41207
45139
50023
54383
58550
63742
70777
77941
85306
92800
100441
106033
112145
120019
127726
135156
142571
150143
156302
162027
168685
175859
182338
188284
194694
199986
204061
207596
211966
217551
222664
226003
228643
230461
232217
234129
235764
236598
237314
237634
236817
235427
234124
233954
232935
231261
228830
226774
223014
218079
213346
209987
206635
202014
196981
192149
185499
179733
175161
169958
164727
159004
153506
147105
140339
133850
128841
123541
117911
111770
105278
97878
92201
86233
80326
75151
69243
63584
57266
51014
44939
38594
33066
29269
25079
19455
13023
8381
4238
-1043
-6257
-10779
-15601
-21308
-25612
-29486
-32482
-35896
-39298
-43735
-48318
-53799
-59291
-63408
-66134
-69227
-72660
-76622
-80839
-85752
-89725
-92517
-94662
-97221
-100309
-103304
-106559
-108396
-108695
-109656
-111061
-111773
-111841
-112643
-112689
-113636
-114329
-114981
-114922
-115182
-115486
-115741
-115517
-115278
-115247
-114542
-113547
-111419
-110351
-108497
-106794
-104753
-102664
-100272
-98586
-97620
-96742
-95958
-94791
-92447
-90321
-87992
-85511
-84819
-84157
-82230
-80393
-78671
-76671
-74843
-73742
-74048
-73553
-72114
-70717
-69484
-67989
-67399
-67417
-67791
-67347
-65662
-64790
-63876
-63448
-63252
-63572
-62858
-62060
-61279
-60657
-59624
-59586
-61024
-62284
-62619
-61993
-62149
-62605
-62142
-61762
-62956
-62977
-62079
-61749
-61219
-60824
-61016
-61929
-61487
-60329
-60087
-60139
-60299
-59757
-60004
-60918
-61732
-62944
-62632
-61155
-61363
-61118
-61944
-61742
-60416
-58929
-57862
-57284
-56859
-56821
-57492
-57515
-56278
-55480
-55067
-54201
-52553
-53116
-53619
-52598
-50924
-49914
-49110
-47801
-47656
-48534
-48228
-46443
-45343
-44516
-43961
-42831
-43187
-42991
-42471
-41206
-39952
-38957
-37722
-37636
-38782
-38592
-36198
-35453
-34434
-33379
-32844
-33091
-33039
-32318
-30888
-29496
-28120
-27765
-27611
-27961
-27491
-25284
-23719
-22088
-21982
-21150
-20871
-20744
-19386
-17762
-16956
-15774
-15225
-15059
-15342
-14961
-13695
-12871
-12229
-10736
-9250
-9417
-8930
-8102
-6834
-5916
-4618
-3321
-3468
-3866
-3297
-1742
130
1678
2841
3754
3026
2761
4060
5519
6431
7880
8593
8148
7167
7150
8198
9283
9789
10078
10295
9304
8766
9838
10441
11250
11830
12231
12109
11530
11450
12616
13034
13271
13379
12942
12023
12057
12660
13516
14751
15207
15212
14634
14111
14490
15279
15958
16118
17117
17677
16971
16557
17312
18330
19748
21389
22076
22314
22637
23782
26553
29578
32859
35717
37612
39021
42145
45686
49593
54696
59798
65073
70409
76186
82731
89251
96053
103519
111369
119005
125497
133468
141546
149103
156571
164247
172236
178155
182853
188598
195288
201648
207128
211971
216276
219028
222697
227144
230653
233363
235721
238438
239183
239321
239662
240428
240719
240443
239812
238315
235576
232592
230309
228367
224758
220451
216782
212214
206484
201814
198176
193708
188978
183546
177656
171616
165437
160286
155549
150122
144751
138694
131793
124544
117786
112155
106228
100954
95906
89623
82176
75652
70583
65206
58954
52816
46655
40204
33848
29112
25806
21111
16518
12260
6808
510
-5816
-10612
-15174
-20555
-24574
-27545
-32221
-37587
-42184
-46229
-51519
-55875
-59425
-63346
-68309
-72752
-76056
-79361
-83002
-87044
-90538
-94517
-98127
-100968
-102219
-103287
-104876
-107150
-110006
-113161
-115019
-115207
-115316
-115100
-115138
-114479
-115758
-116836
-117054
-116566
-116292
-115217
-114242
-113706
-114005
-113230
-111711
-109996
-108709
-107279
-105324
-104626
-103886
-102384
-99377
-97258
-95322
-94142
-93346
-92725
-91042
-88742
-86237
-84564
-82326
-79746
-78740
-77757
-76545
-73792
-71692
-70602
-68913
-67692
-67557
-67126
-64626
-61661
-60919
-60784
-59733
-59683
-59693
-59196
-58179
-56963
-56724
-57132
-57785
-59134
-59958
-59221
-58889
-58391
-58724
-58679
-59716
-60742
-60292
-59284
-58973
-58912
-59007
-59702
-61015
-61957
-61168
-60759
-60847
-60882
-61121
-62239
-62823
-62427
-61590
-60226
-59651
-59431
-60085
-61659
-62175
-61708
-61268
-60898
-60399
-60054
-60700
-61264
-61302
-61017
-60783
-59926
-58781
-59490
-60198
-59876
-59204
-58607
-58180
-57277
-56728
-57826
-58042
-56757
-55312
-54247
-53776
-53172
-53059
-53449
-53007
-51474
-50350
-48958
-47772
-47030
-47702
-48251
-46788
-44567
-43172
-42952
-42224
-42186
-42581
-41818
-40144
-39119
-38048
-37269
-36361
-36824
-36632
-34611
-32709
-31362
-30029
-28997
-28701
-28598
-28122
-26164
-24557
-23374
-22337
-21642
-22336
-22097
-20964
-19636
-18682
-17339
-15978
-16506
-16367
-15379
-13370
-12628
-11626
-9896
-8757
-9176
-9572
-8467
-7166
-6516
-5594
-4749
-5007
-5641
-5132
-3564
-2705
-1513
-352
528
-967
-1369
-571
-260
542
927
1957
1414
939
684
1794
2370
3384
4881
5561
4431
4076
5294
5689
6303
6738
7074
7913
8340
8164
8161
8607
8890
9075
9092
9286
15990
16018
16398
17893
19609
21881
24851
28212
31854
34094
37572
41930
46744
51981
57738
63834
69416
75583
81459
88894
96652
104025
111239
118683
125026
132693
141279
148540
155783
163883
170864
176673
181794
188163
194848
200869
207143
212263
216505
219276
222505
226624
230299
233287
235029
236071
236524
236779
237820
238779
238186
237004
235228
232571
228602
225427
223309
220649
217187
212899
208833
203603
197178
191282
187437
182321
176933
171963
165066
157592
150795
144578
138396
132569
126873
120409
113308
105544
99197
93923
88394
82974
77224
70576
63365
56956
51820
46694
41083
35778
30219
23530
17407
11519
6772
2011
-3281
-8402
-14108
-20571
-26102
-29680
-34526
-39940
-45231
-50124
-55674
-60932
-64801
-68144
-71676
-74887
-78535
-82608
-87358
-90944
-92976
-96021
-98611
-100812
-103404
-106697
-109412
-111439
-112349
-113438
-115337
-116521
-118016
-120111
-121396
-121869
-121801
-120884
-120298
-119840
-119554
-119331
-117517
-115369
-114171
-112222
-110369
-109222
-108906
-107583
-105212
-102825
-100462
-98567
-96550
-95529
-94187
-91529
-89026
-86686
-84570
-82762
-81057
-79803
-78409
-75851
-73345
-70711
-68596
-66693
-65983
-65209
-63126
-60847
-58713
-56932
-55851
-55604
-55820
-55334
-53967
-52634
-51264
-49969
-49370
-50207
-50349
-49086
-48329
-48301
-47536
-47131
-47559
-48522
-48430
-48071
-48383
-48517
-48601
-49191
-49504
-50316
-50016
-49269
-49652
-49781
-49513
-50190
-52491
-53030
-52119
-51264
-50907
-51674
-52492
-53827
-54966
-53912
-53163
-52977
-53341
-53428
-54137
-55384
-56081
-55695
-55751
-56551
-55663
-54797
-55893
-56389
-55797
-55831
-55460
-54832
-54202
-54954
-55476
-53814
-53432
-52627
-51728
-51692
-50908
-51442
-52056
-52742
-52869
-51767
-50557
-48834
-47957
-48428
-47187
-46072
-45432
-44602
-43798
-43442
-44463
-45477
-44636
-42902
-41635
-40469
-40554
-40553
-40621
-39540
-38617
-37731
-36365
-34922
-33764
-34043
-34357
-33115
-31508
-31124
-30459
-29542
-29252
-28924
-27219
-25652
-24306
-22867
-21852
-21076
-20214
-19337
-18635
-17924
-16193
-15651
-15598
-16182
-16873
-16376
-16513
-16827
-16242
-14430
-13184
-12894
-12091
-11170
-9847
-8887
-8163
-7701
-8011
-8608
-8479
-7339
-6716
-5969
-4954
-4567
-5406
-5367
-4390
-2839
-2255
-1782
-664
-1392
-1907
-732
1195
1895
2169
3348
3699
3602
4291
5094
6031
7702
9206
10723
11834
12898
15028
18107
21711
25004
28811
33048
35655
38541
43677
48586
54878
61728
68516
74131
80884
88858
98078
106658
115534
124556
133216
140769
149438
159682
168608
177731
187040
196510
203779
210840
218549
227297
235047
241803
248472
254340
258828
263510
268843
273423
276797
280496
283583
284993
285841
287311
288241
288054
286837
286203
284959
281783
278956
277117
273881
270338
266665
262490
256547
250263
244638
239491
234686
228820
223064
216518
208641
201271
194591
187445
180343
173339
166109
157451
148988
141936
135886
128353
120933
113620
106023
97803
90353
83748
77201
70476
63564
57464
49859
41628
34978
29761
24421
18094
12096
6511
459
-5732
-11437
-17177
-22587
-28873
-34711
-41446
-48072
-53680
-58402
-63624
-69375
-74369
-80308
-86242
-92147
-97136
-101509
-105630
-110146
-114538
-119389
-124246
-127566
-130728
-133718
-136468
-139514
-143218
-146987
-149741
-151248
-152325
-154020
-155609
-156766
-159060
-160580
-160316
-159092
-158309
-158057
-157322
-157697
-158070
-157629
-156370
-155361
-153427
-150836
-149604
-148752
-147527
-144913
-142504
-140256
-138250
-135827
-133369
-131564
-129422
-126766
-123881
-120985
-117727
-114682
-113885
-112382
-109026
-105776
-103097
-100982
-99043
-98297
-97306
-95561
-93368
-91713
-90364
-89362
-87552
-87100
-86436
-85239
-84276
-83329
-81838
-79966
-80019
-81225
-80569
-79342
-78816
-78578
-77811
-77415
-78692
-78697
-77464
-77242
-77043
-76872
-77099
-77804
-78661
-78936
-78396
-77952
-79123
-78982
-79152
-80584
-81219
-81642
-82529
-83096
-81852
-80964
-81803
-82014
-80715
-79648
-79228
-78916
-78296
-78359
-79666
-80347
-80494
-79097
-78039
-77779
-76683
-77567
-78356
-76781
-75058
-74857
-74620
-74254
-73227
-73793
-73495
-72991
-72194
-72331
-71649
-70979
-71301
-71241
-68921
-67826
-67367
-66646
-65849
-64860
-64005
-63519
-62312
-61332
-60663
-60015
-59223
-58709
-59068
-58557
-58242
-58009
-57261
-56009
-53793
-52599
-51126
-49455
-47619
-46062
-44708
-43886
-43500
-43639
-42569
-40011
-37807
-36219
-34236
-32536
-32949
-32864
-31352
-29540
-27557
-25889
-25325
-25393
-25362
-24076
-22196
-20767
-19841
-19306
-18911
-18624
-18580
-17036
-15240
-13394
-11939
-10249
-9372
-8658
-7497
-6557
-5899
-5907
-5127
-4007
-3946
-3621
-3153
-2831
-2183
-1179
736
944
2307
3344
3998
4525
4538
4951
5854
5756
6014
6456
8016
9317
10673
11476
10661
10738
11969
13654
14499
14995
16126
17309
17214
17708
19762
21600
23062
24814
26443
27491
29050
31349
35108
38594
42268
46991
51966
56068
61014
66787
72781
79306
86725
95359
103273
111436
120363
129815
139319
149472
160899
171857
181639
192384
203293
214081
224241
234596
244344
252473
260665
269405
279059
288039
296111
303479
309498
314961
321139
326923
331749
335846
339186
341800
343277
344455
346545
348538
348352
348124
345723
342581
339121
335515
333359
330051
325595
320551
315566
308479
301642
295160
288088
281508
273943
266302
257116
247814
239166
231456
223803
215769
207035
198779
189465
180375
172163
164608
156405
148941
141191
132067
123254
114793
107244
99556
91183
82772
74554
65978
59444
53539
47238
41533
35409
29299
22220
14528
7563
1296
-5186
-11089
-16858
-24071
-31597
-38916
-46059
-52879
-59531
-66524
-73036
-80096
-87763
-95493
-102341
-107201
-113099
-118846
-124494
-131307
-136491
-141309
-145379
-149866
-154866
-158789
-163587
-168613
-172061
-174159
-177131
-179257
-182038
-184794
-187663
-189816
-189810
-189990
-190712
-191584
-191127
-192236
-193403
-193633
-192165
-190262
-189421
-187856
-187031
-187100
-186384
-184482
-181772
-180290
-178962
-176137
-173664
-171218
-168167
-165591
-163066
-160072
-157897
-154960
-153641
-151933
-150178
-147832
-144662
-140666
-137716
-135944
-133979
-131722
-129968
-128248
-126151
-124532
-122972
-122278
-121287
-119570
-116763
-114869
-113434
-112157
-111793
-111154
-109197
-107782
-106656
-105634
-104922
-104562
-105598
-105736
-104818
-103062
-102611
-101986
-101281
-101444
-101604
-101581
-101100
-100663
-100107
-100166
-100366
-101319
-101954
-101759
-100708
-99729
-99005
-98288
-98577
-99192
-97448
-96162
-95474
-95683
-95630
-95949
-96829
-96965
-96198
-95194
-93922
-93237
-92611
-93414
-94199
-93596
-92006
-90968
-89859
-88757
-88473
-89370
-89656
-88556
-87366
-85529
-83544
-82966
-83221
-82791
-81791
-80208
-79220
-78466
-77638
-76689
-76604
-75787
-74220
-72709
-71294
-69738
-68616
-68383
-67648
-66450
-64536
-62666
-60142
-58112
-57186
-57095
-55851
-53946
-52017
-50506
-49315
-48102
-47951
-46572
-44786
-42864
-41287
-39587
-38171
-36621
-36566
-35946
-33588
-31209
-29257
-28084
-26289
-26075
-26048
-25177
-22935
-21426
-19568
-17736
-16066
-15017
-13659
-12369
-11707
-10832
-9361
-8358
-7851
-7202
-6197
-4570
-2984
-2177
-588
-223
106
681
2933
5244
6921
6592
7148
7484
8103
9028
10158
11556
12528
13789
13685
13406
13723
14803
16028
17535
18801
18344
17147
17003
17944
19056
19370
20088
20922
21003
20034
19954
21682
22713
23115
24011
24016
23883
23854
24689
25542
26786
28100
28958
30049
29884
30661
33120
35106
37075
40503
43095
45701
49029
53770
59141
64382
70090
76451
81649
87409
94693
103981
113558
123891
134193
144415
154459
164989
176446
187952
199371
210063
220813
231393
241248
251299
262445
273295
282726
292334
301826
309788
317163
326215
334303
341609
348239
353914
358947
362564
366724
371284
374534
377511
378632
379378
378331
378130
378095
376205
374615
371976
368501
363906
358177
352199
346307
341053
334946
328141
321015
312719
304221
296039
287938
279538
270605
262166
251961
241381
231523
222102
212351
203234
194233
185304
175139
165462
157335
149327
139693
129815
119783
109132
100168
93109
85420
77361
70674
65135
58248
49529
40774
32727
25477
18180
11142
3359
-5334
-12935
-20633
-27988
-35914
-43906
-51111
-59575
-68252
-76099
-83458
-90567
-97890
-104390
-110216
-116504
-122460
-128281
-135179
-141612
-146934
-151924
-157654
-165084
-171549
-176727
-180030
-183531
-187739
-191149
-195151
-198533
-199894
-200967
-202091
-203696
-205322
-207057
-209210
-211489
-211672
-210681
-210403
-209910
-208886
-208339
-207511
-204938
-202323
-200372
-198304
-196179
-193146
-190819
-188336
-186309
-183111
-179149
-175587
-173084
-171576
-170194
-168291
-164894
-161420
-158205
-155584
-153410
-151312
-148091
-145617
-142539
-139624
-136617
-133402
-132042
-130223
-127949
-125480
-122238
-119847
-117821
-115725
-115367
-114371
-113486
-112247
-110540
-109834
-108504
-108837
-109339
-109231
-108352
-107654
-107289
-107276
-107669
-107753
-107434
-106539
-105306
-104561
-103619
-102342
-101840
-102147
-101993
-101941
-102175
-102014
-102079
-102501
-104007
-104354
-104541
-104578
-104501
-104592
-103985
-103715
-102734
-102099
-101173
-100633
-99741
-98809
-98614
-99654
-100401
-100127
-99142
-98450
-97616
-96336
-96151
-95559
-93732
-93268
-92588
-91999
-91035
-90261
-89811
-88383
-86566
-85112
-83378
-81866
-81092
-81376
-81017
-78663
-76243
-74581
-72894
-72070
-71726
-71391
-70556
-68326
-66865
-65843
-63304
-61788
-61222
-60832
-58742
-56509
-55219
-53733
-51949
-50351
-49712
-47967
-46562
-44480
-42302
-41064
-39723
-38421
-37011
-34418
-32477
-31025
-29668
-27937
-26622
-26577
-25969
-24266
-22129
-20240
-18472
-16884
-17582
-17929
-16094
-14637
-13031
-11384
-10513
-9826
-9659
-8531
-5972
-4677
-3297
-2159
-1346
-1254
-636
1022
2633
4221
4905
6155
6418
5783
6041
6746
8141
9494
10239
10735
10149
10009
11009
11861
12487
12983
13531
13098
12174
12958
14667
15449
16527
17916
18351
17714
17796
19456
20818
21470
22323
23887
25015
24863
25789
27417
29742
31985
34043
37304
40409
44939
49993
55107
60833
67750
74381
80544
86020
90954
96684
104186
113029
122144
131623
140322
149448
160798
172149
184024
195309
205508
214987
224473
234748
245858
256599
267253
276621
285374
292878
300604
309139
317118
324319
330658
336665
341471
345323
348681
352370
355761
358249
359550
359494
358209
357591
357374
355834
352722
349436
345611
341393
336754
330964
325138
319079
312258
305068
296851
286744
278105
269509
260598
252493
242995
234294
224690
217288
208565
198967
189902
179499
170349
161755
151357
141383
132458
124120
115361
106400
98749
90322
81312
73781
66703
58645
48996
41000
32079
22019
13058
4702
-3211
-11054
-18736
-26814
-36029
-45092
-52683
-60100
-67251
-74484
-82167
-90031
-98971
-106899
-112884
-118938
-125437
-132062
-138596
-144598
-150627
-156439
-160452
-164247
-167984
-171713
-175423
-179859
-183356
-185419
-187144
-188403
-189813
-191406
-193093
-194632
-195546
-195032
-195601
-194305
-193699
-193470
-192784
-191074
-189107
-186876
-185002
-182847
-180507
-178069
-176227
-173235
-169049
-164618
-160992
-157400
-154068
-152062
-148987
-144481
-140428
-136263
-132065
-128501
-126465
-123799
-120231
-115694
-112414
-109079
-105564
-101694
-99332
-96570
-93679
-90865
-88517
-86470
-83952
-83167
-82148
-81141
-79021
-77365
-75660
-73663
-72667
-73382
-73862
-72581
-71332
-71132
-70526
-70264
-70550
-71366
-70801
-69868
-69441
-69776
-69977
-71196
-72960
-73197
-73152
-73204
-74164
-74363
-74060
-75628
-76981
-76698
-76108
-75903
-77087
-78221
-79440
-80694
-81445
-81729
-81979
-81971
-81263
-80716
-80969
-81573
-80764
-79146
-78218
-77413
-76904
-77768
-78990
-79733
-78640
-76704
-76637
-77051
-77177
-77239
-76782
-75439
-74481
-73207
-72376
-71644
-70288
-70501
-70551
-68461
-66956
-66431
-65478
-64409
-64334
-64036
-61939
-59878
-57900
-56184
-55762
-55117
-54266
-53802
-51434
-49594
-48467
-46931
-44882
-43899
-42687
-41818
-41638
-41739
-40707
-38510
-38112
-38422
-37248
-36046
-34865
-33344
-30973
-28287
-27058
-25169
-23781
-23081
-21659
-20678
-18884
-17536
-17183
-16188
-14552
-12335
-10564
-9177
-8248
-8455
-8112
-5976
-4247
-2667
-1437
-54
511
53
318
2443
3496
3489
4908
6350
6379
7483
8079
8489
8653
8509
8884
9026
8693
9243
9966
10062
11224
12692
13760
13983
15138
16056
16695
17218
17151
18195
18264
17778
17822
18811
20072
21054
22471
23409
22916
23644
25741
27603
30386
32849
35383
37856
39788
42425
47244
52376
58194
64536
71353
77588
84369
91774
99134
106773
114849
124782
134241
143553
154361
165625
176904
187813
198653
209793
219828
230444
240786
251591
261928
272352
283346
293323
302961
311995
320210
327926
335579
342846
349141
353644
358468
362739
366623
369980
373242
375597
375037
374428
375055
374461
372871
370327
366496
362605
357529
352702
347919
342484
336269
330153
323532
315624
306705
298059
290433
282009
272811
263816
253028
242088
232348
223972
214291
204479
194092
184580
173654
162494
152442
143799
134228
123887
114593
105631
96372
86945
78864
70054
62068
53995
45782
35889
26281
17984
9856
1869
-5833
-13916
-21967
-31191
-39761
-47357
-54914
-62818
-70634
-78735
-87599
-96496
-104533
-111907
-119454
-126831
-134043
-141633
-148702
-155492
-161011
-166576
-171513
-175907
-179929
-185318
-189188
-192052
-195087
-198274
-200587
-202843
-204996
-207281
-208460
-208968
-209166
-210072
-210531
-210692
-211921
-211942
-210584
-208121
-206846
-205479
-204082
-202081
-200981
-198390
-195094
-191376
-188281
-185476
-182442
-180774
-177972
-173736
-169511
-165772
-162401
-158128
-154642
-152683
-150224
-146303
-142295
-138832
-135582
-133024
-130901
-128193
-124392
-120400
-116432
-113132
-110609
-108776
-108010
-106444
-103767
-102012
-99866
-97127
-95706
-95458
-94993
-93651
-92537
-91734
-89782
-88162
-88021
-88753
-88927
-88852
-87627
-86347
-86897
-86960
-87782
-88605
-88943
-88978
-88433
-88206
-87424
-87622
-88532
-88861
-88022
-87787
-87987
-87747
-87706
-88281
-88840
-88239
-87909
-88047
-88147
-87822
-88727
-89964
-89159
-87471
-87447
-87940
-86483
-84892
-86659
-87479
-87468
-86384
-85220
-85182
-84269
-84407
-84855
-84574
-82548
-81549
-80526
-79103
-78365
-78998
-78501
-76603
-75062
-74171
-73329
-73273
-73450
-74027
-73889
-73049
-72484
-70402
-68546
-68312
-67922
-67403
-64746
-61913
-60460
-58724
-57247
-56876
-56702
-55618
-53673
-52920
-52329
-51857
-50522
-48982
-47372
-45795
-44164
-43447
-42421
-41014
-40480
-39481
-38182
-36562
-35158
-32742
-30284
-29379
-28730
-27100
-24481
-22374
-21371
-20627
-19280
-18190
-16782
-15924
-14046
-12189
-11286
-9532
-8374
-7367
-7028
-5906
-5371
-3567
-2061
-1854
-2237
-1764
-74
1816
2737
3988
4919
6137
6696
6626
7508
8724
10356
11921
12294
12006
11647
11293
12554
13497
14074
15363
15774
14648
14410
15582
17123
17594
18343
19998
20546
20499
21396
23225
24591
26056
27717
29321
30264
31759
34293
37169
40720
44804
48780
52657
57771
63774
71280
79701
87182
93626
100871
108473
118420
129368
141202
152829
164669
176763
188093
200024
212878
226791
239733
252258
265775
277796
289374
301508
313385
324533
335278
345894
356174
364653
372948
381732
390684
398283
404393
410835
415846
418921
422070
425648
426994
427626
427875
427402
424976
422749
420061
417087
413861
410577
404882
398749
392107
384929
377513
370150
361808
352808
343511
333380
323845
314268
305140
295994
286076
275648
265176
253600
242684
232529
222550
211554
199519
188323
177026
165906
155773
146675
136676
126408
117180
108330
97709
88515
80539
72179
63581
55230
45535
35415
25853
18132
10920
2111
-7107
-17239
-26779
-36601
-45729
-53427
-61784
-69231
-76836
-85230
-94337
-103104
-110659
-117428
-125359
-133047
-141661
-150259
-158670
-166807
-173487
-180774
-187494
-193626
-200269
-206693
-212433
-217219
-222092
-225842
-229537
-233395
-238181
-242934
-245429
-246349
-247822
-249399
-251559
-252054
-253391
-254039
-253766
-253934
-254497
-253481
-251320
-250537
-250343
-249554
-246661
-243970
-241579
-238833
-235352
-233186
-231199
-227179
-223525
-220479
-216974
-213504
-210692
-207606
-204148
-200159
-196886
-193279
-189462
-185649
-183672
-181501
-177569
-173117
-170201
-167767
-164916
-162447
-160904
-156444
-152784
-150898
-150326
-148772
-146183
-144989
-143754
-142009
-139767
-138626
-136691
-135423
-134594
-134001
-132620
-131370
-131319
-131132
-130884
-130322
-130233
-128826
-127507
-126127
-124801
-122816
-121839
-122064
-122261
-121836
-121169
-120151
-120331
-119729
-119036
-119360
-119887
-119862
-118687
-118680
-118147
-117989
-117817
-117405
-115024
-113371
-113754
-113578
-112457
-111950
-112166
-110924
-110088
-109391
-108716
-108137
-107598
-107269
-106631
-106324
-105866
-104996
-104059
-101570
-100409
-99327
-96829
-94478
-92852
-91199
-89684
-88076
-87065
-86669
-85722
-83841
-81963
-80232
-77684
-75763
-75712
-74945
-73099
-71877
-71454
-69761
-67753
-67308
-66334
-64280
-60576
-58781
-57397
-55967
-53972
-52972
-50846
-48297
-46911
-45509
-44524
-42251
-40761
-40283
-39177
-36594
-34789
-33774
-32552
-30356
-28607
-27124
-24345
-21919
-19851
-18118
-15968
-15234
-13796
-11421
-8807
-8025
-6892
-5029
-3803
-3366
-1621
897
2926
3908
6068
7949
7977
8328
9178
10936
12081
13573
15005
15526
15495
16381
17573
18901
19753
21514
23255
22898
22984
24166
25258
25582
26472
27669
28721
28828
29006
29102
29561
30282
30221
30029
30118
30216
30681
31981
32874
33979
34660
33867
33257
33378
34347
34763
34981
35934
37166
37104
37586
39165
40974
43210
45244
47390
50120
51494
54384
59174
64371
69390
74447
80272
86187
92091
99121
106963
116148
126064
136075
145958
155726
167186
180051
192006
204856
218489
231229
243147
256359
270896
285366
298779
311838
324069
335789
346946
358273
369679
381366
392139
401667
411058
417783
424249
431391
438218
443233
447758
451876
455408
456976
458822
460401
459648
458102
456536
454833
451069
446904
442330
436986
430627
424283
417210
409548
400661
392217
383858
376344
367479
358124
348108
336063
325776
315696
304436
294049
282092
271219
259390
246841
236065
225646
213409
200297
189241
179526
168149
157683
147334
137404
127218
117312
108151
97930
86356
76694
68221
58832
49781
41732
33253
22633
12424
3316
-5567
-14292
-22762
-31153
-41097
-51299
-60685
-69529
-77736
-86877
-95664
-105031
-115650
-125535
-134116
-140732
-147971
-155564
-163007
-171119
-179626
-186578
-193935
-200661
-206992
-212884
-219569
-226292
-231717
-237777
-242277
-244791
-247574
-251131
-254899
-258387
-260136
-261881
-263172
-263542
-263922
-263712
-264852
-265736
-265929
-265139
-264616
-263667
-261817
-260011
-258979
-256673
-253102
-249976
-246909
-244112
-240760
-239031
-236089
-232002
-228599
-223565
-218484
-214036
-210900
-208798
-205092
-200594
-197500
-194251
-189781
-185415
-182071
-179727
-177421
-174332
-171721
-168944
-166081
-164420
-162734
-160249
-158299
-155890
-153840
-150884
-148249
-145711
-142857
-140792
-138577
-137536
-136724
-136113
-136280
-135409
-134814
-133199
-131701
-130173
-128706
-128835
-130101
-129463
-128111
-126326
-125944
-126385
-126731
-127785
-128084
-126877
-125525
-125203
-124372
-123584
-123790
-124804
-124709
-123286
-121604
-120914
-121156
-120177
-119857
-120054
-119742
-118189
-116980
-116569
-115254
-114516
-114228
-113814
-112387
-111087
-110166
-108582
-106789
-105901
-105137
-103750
-101843
-100219
-98691
-98541
-97554
-96548
-95816
-92937
-91041
-90084
-89262
-88579
-88826
-88433
-86711
-84239
-82629
-81874
-80064
-77471
-76132
-75279
-73395
-70842
-68749
-67054
-64067
-62792
-62189
-60516
-58520
-57881
-56412
-54632
-52491
-50366
-48395
-46225
-43859
-42947
-41630
-39799
-37999
-37299
-34981
-31087
-28609
-25952
-23469
-21562
-20947
-19564
-17476
-15836
-13607
-11744
-10523
-9929
-7680
-5250
-2244
369
3094
5317
6497
6403
6653
9583
11269
12607
13719
14701
15382
15542
16606
18372
19436
20370
21727
22374
22383
23078
24508
25359
27212
28541
29656
29867
29971
31488
31816
32120
32744
33756
34254
33653
33016
33406
33734
33024
32557
32729
31529
31470
33116
35108
36031
36384
36961
36945
36973
36637
37024
38401
39237
38528
38169
36998
36618
37846
38976
39325
40429
41528
42404
42751
44343
46232
48205
51367
54866
58353
61356
65379
71491
77836
83933
90698
97233
103729
111699
120713
131004
141009
152223
163559
175448
186989
199353
213326
226346
240349
254231
267950
280204
291594
302805
314686
326467
337758
349038
360693
370228
380144
390302
399676
407094
413743
419874
425384
430183
434599
438990
441439
443344
444324
444806
443807
442393
439924
437061
433334
429694
425136
417602
410906
404672
397108
388258
379045
370739
361488
351236
341124
330080
319464
310248
300162
290298
279143
267013
255123
242520
230821
219560
208284
196716
183941
170991
159544
149000
138200
128263
118293
107331
96725
86096
75235
65607
56690
47221
37680
27559
17696
8504
-471
-10109
-19246
-28578
-38452
-47916
-56434
-66043
-75104
-83816
-93007
-102268
-111489
-119806
-128844
-138596
-148358
-156984
-164241
-173012
-180909
-187739
-194606
-201199
-207342
-212284
-216516
-221193
-224287
-227970
-231401
-234492
-238509
-241049
-244589
-247787
-250036
-250923
-251819
-252506
-251424
-250993
-252059
-251795
-250265
-248314
-245521
-243266
-241711
-240565
-238457
-235627
-231678
-228118
-224212
-220891
-216846
-214056
-210444
-206015
-202374
-198171
-194602
-190062
-186239
-182928
-178140
-172627
-166889
-161092
-156752
-153980
-151686
-149104
-144800
-140734
-136773
-133946
-131901
-131460
-130729
-129004
-126823
-124332
-122557
-121561
-119494
-117951
-115538
-112132
-109075
-106128
-104758
-103929
-104061
-104045
-104609
-105082
-105073
-104380
-103562
-104491
-106456
-107302
-106982
-107003
-107135
-107260
-106853
-107742
-108191
-107607
-107202
-107631
-107600
-107827
-108631
-108809
-108646
-107466
-107154
-108195
-108357
-107723
-107932
-107767
-107935
-107922
-106914
-105754
-106201
-105900
-106308
-106107
-104703
-104601
-104991
-104343
-103464
-102595
-101949
-100278
-97683
-96059
-94913
-93543
-92959
-92497
-91897
-89913
-87278
-86539
-85732
-84498
-83874
-83455
-82209
-80423
-78792
-77601
-75111
-73342
-72523
-71190
-69230
-67821
-66012
-64132
-61969
-61282
-60457
-57637
-55671
-54001
-52116
-50232
-48763
-47426
-45524
-42528
-40508
-39013
-36816
-34296
-33048
-32447
-29596
-25974
-24060
-22572
-21068
-20052
-19678
-18287
-16574
-14951
-13964
-12537
-10326
-9507
-8846
-7676
-5579
-4319
-3166
-2374
-1668
-1008
699
2499
4845
6891
8259
9789
10789
11619
13558
15528
17882
19719
20685
21158
22492
24094
24524
24778
25591
25952
26703
26989
27167
26859
27209
27444
27386
28444
27917
28854
29680
29835
31054
31904
31839
31673
31204
31513
31257
32529
32774
32633
33638
33524
32864
33924
35354
36898
37814
38228
38831
38451
38705
40434
43563
46470
48364
51055
53816
56312
60069
65694
71513
77598
84248
91330
97088
104299
113111
123295
133056
142904
154714
165311
176221
189241
203464
216913
230938
244053
256364
268888
281973
295431
308994
321442
334158
345968
356467
367340
377936
388611
398393
407045
415351
422098
427711
433331
438335
443220
445264
446812
448808
450176
450452
448442
446169
443515
440776
438142
433632
427621
421387
413674
405910
398218
389563
380573
371333
361655
351759
342040
331961
320962
309480
297235
285196
273279
260922
247723
235021
223075
212180
200381
189238
176863
163665
150792
139582
129230
118744
108643
98213
88341
80098
71288
62389
51305
39988
29454
19791
9935
814
-9006
-18651
-28735
-39462
-50528
-60054
-69044
-77347
-86778
-96724
-107412
-117147
-126589
-135040
-144250
-153604
-161457
-169237
-177976
-185943
-192975
-199214
-205176
-211554
-216644
-222319
-228002
-232835
-237426
-240169
-242828
-245924
-248638
-251779
-254321
-253689
-254492
-255795
-257797
-258929
-259800
-260314
-259271
-257194
-255904
-253179
-250423
-247582
-244968
-242704
-240283
-236358
-232733
-229565
-225496
-221930
-218347
-214777
-211589
-207922
-204338
-200014
-195862
-192446
-188911
-185237
-181024
-177118
-173062
-169706
-166351
-161642
-157509
-153892
-150341
-146724
-142491
-140131
-138091
-135154
-132567
-130019
-128419
-128439
-126593
-125519
-123559
-120107
-117785
-116357
-116006
-115142
-115534
-116275
-116633
-114785
-113401
-113277
-113280
-113630
-113527
-113236
-112304
-111211
-110844
-111961
-112557
-112881
-113284
-113097
-111898
-112307
-112319
-111930
-111301
-111653
-112094
-111206
-111596
-111461
-111582
-111162
-110701
-110862
-110342
-108938
-108134
-107749
-106751
-105984
-106502
-106252
-105006
-104436
-103432
-102166
-101445
-101254
-101101
-101081
-98835
-97242
-95969
-94532
-94259
-94245
-93661
-91948
-90147
-89300
-87505
-85589
-84779
-84611
-83052
-80146
-78331
-76708
-75507
-74806
-74777
-73705
-71915
-69919
-67681
-66671
-65340
-64712
-63810
-62326
-60087
-58088
-57054
-54663
-52859
-52590
-50495
-47342
-44472
-42716
-40142
-37982
-36578
-36025
-35684
-34076
-32181
-30563
-28080
-25432
-24189
-22754
-20339
-18403
-16856
-15059
-13057
-12519
-11854
-10564
-8325
-7589
-6767
-5509
-4414
-4179
-3182
-986
956
1960
3869
5309
5654
7057
9405
12139
13243
14918
16643
17468
17213
17751
19975
21788
22563
23671
24613
25225
25447
26753
28448
29014
29063
29546
30864
30193
30039
31031
32227
32528
32747
32454
31228
30687
31806
33798
34505
35363
35230
34222
33583
33438
34223
34610
34914
34876
35263
35238
35045
35116
36749
37836
38463
39066
39324
38871
39312
41208
43029
44418
46223
48772
51561
55106
59218
63653
69887
75289
81013
87246
92751
100015
108451
117574
127341
138162
150548
162781
176006
189522
204128
217903
231651
247174
262571
276788
290828
306380
322309
337589
351951
365456
378808
392360
405993
418221
429243
439509
449668
457791
465694
473468
481837
488794
494183
500521
505228
506181
506708
506883
505073
504533
502733
499839
496263
490873
485083
478468
471144
463166
455599
448085
439389
431420
421853
411364
399496
387211
375834
363129
350429
337969
325442
314298
302537
290616
278464
264595
251524
238511
225050
211520
199483
187201
173817
160651
148518
138412
127672
117289
107034
95963
83341
70773
59589
48245
36978
25513
14878
5255
-5155
-14532
-23918
-33517
-44037
-54854
-66049
-76927
-87238
-97002
-106579
-116125
-125303
-134170
-143073
-153657
-163589
-172645
-181377
-189942
-198852
-207858
-216933
-225383
-233075
-238970
-246422
-253732
-258927
-264052
-270767
-276054
-280964
-286588
-290963
-293504
-296289
-300680
-303061
-302817
-303318
-305016
-306397
-306356
-306934
-307298
-306416
-303682
-301819
-300634
-299112
-297021
-296049
-295636
-293638
-290796
-287101
-284359
-281467
-278365
-275181
-271101
-265654
-259556
-254554
-250464
-246190
-242548
-237898
-231820
-226551
-221619
-218062
-215298
-213359
-211569
-208218
-203851
-200344
-198092
-195104
-191987
-189719
-186772
-183227
-180537
-177987
-175861
-173006
-170997
-168904
-166037
-162439
-160331
-159494
-158343
-157212
-157488
-156764
-155001
-153904
-152444
-151124
-149179
-148637
-149924
-149370
-147389
-146521
-146517
-146377
-146252
-146907
-145793
-144346
-144675
-144230
-142691
-141662
-141342
-141121
-140576
-139567
-138787
-137774
-136764
-135942
-136504
-136494
-134802
-132029
-130176
-129774
-130249
-130516
-130767
-130511
-128804
-127290
-126686
-125381
-123882
-122555
-121112
-118619
-117376
-115312
-114436
-112849
-111797
-110416
-109122
-106921
-104387
-102869
-101182
-99507
-97154
-95921
-93844
-91692
-89452
-86581
-84017
-83622
-83040
-81904
-81847
-80790
-79794
-78368
-77186
-76034
-73012
-70019
-68029
-66617
-63997
-61453
-59734
-58273
-55516
-51766
-49114
-46785
-44957
-43720
-42697
-40325
-37651
-35766
-34831
-33486
-30437
-28859
-27636
-25296
-22395
-19480
-17448
-16252
-14845
-13208
-11441
-10026
-8692
-8031
-6544
-4326
-3267
-2585
-736
1414
3440
5501
7536
8581
10071
12269
14343
16783
18668
19594
19890
20264
21258
21392
22266
24603
26848
28948
29799
29340
30103
30837
31843
33575
34541
34978
35012
35433
35506
36513
37480
38006
38093
38068
36996
37146
38433
38993
38111
38836
39539
39276
38638
38356
38990
40111
40704
42214
42731
41863
42239
44252
45649
46206
46573
47104
46733
46498
46685
47594
48006
49076
50867
52683
52744
54204
56979
60688
65021
69446
75053
79924
85523
92714
100049
107831
117722
127871
136590
145711
157093
170259
184684
197509
210188
225216
238886
252754
268679
284292
299353
315140
330029
344764
358944
373659
388784
402430
416459
429014
441239
452255
463096
473970
483645
492408
500984
508728
514589
519321
522994
525593
529041
532034
534113
534429
531251
527440
524218
520856
515991
510041
503139
495548
486128
476619
468113
459766
449814
438934
428058
416749
403923
391114
378686
365509
351954
339637
325814
311827
298869
287150
273754
259593
245167
231018
217282
204067
191309
178216
165142
152507
139959
127456
114580
102925
91685
80729
68716
55680
42733
31448
20736
10189
815
-8675
-18122
-27971
-38015
-48823
-58881
-68134
-78075
-88767
-99768
-109535
-120366
-130826
-141197
-152420
-162467
-171752
-181743
-191587
-201440
-210391
-217460
-226112
-233682
-240569
-248730
-256051
-262126
-267386
-273224
-279428
-282879
-286751
-291934
-296904
-300967
-304403
-306729
-308585
-310539
-312435
-313757
-314377
-313511
-311939
-311118
-308922
-307642
-307004
-305722
-303368
-299724
-296796
-293881
-289323
-283884
-280239
-277010
-272737
-268260
-263377
-259046
-253821
-249101
-246216
-242339
-238144
-233045
-227603
-222803
-218896
-215971
-211677
-206579
-201728
-197805
-193801
-190229
-187653
-184491
-180374
-175545
-171471
-168624
-167139
-165132
-164105
-161974
-158488
-157474
-156311
-154400
-153601
-153170
-152139
-150579
-149686
-149130
-148364
-147266
-146287
-146116
-145784
-144217
-143709
-144171
-142917
-142058
-141677
-141612
-141011
-139765
-139464
-138612
-137313
-137657
-138229
-138253
-137192
-137041
-136527
-136264
-136364
-138020
-139021
-138392
-137026
-136417
-135687
-135899
-135232
-134371
-132998
-131729
-131206
-130074
-129382
-126915
-124984
-123979
-122770
-121181
-119681
-118583
-117500
-116339
-115576
-114219
-112347
-110687
-108620
-106117
-104878
-105009
-104421
-102471
-100462
-97797
-95431
-93106
-91257
-90279
-88102
-84584
-81056
-78702
-77142
-74856
-73290
-71541
-70024
-68500
-66920
-65659
-63734
-61539
-60339
-58152
-55231
-53696
-52876
-51535
-49463
-46782
-44570
-41423
-38182
-35027
-32486
-30601
-28744
-27230
-24556
-21496
-18976
-15136
-12118
-10438
-10114
-9549
-7516
-5354
-3037
-1318
187
1223
2318
4067
6504
10009
12207
14202
16466
17229
17979
18701
19689
21854
23659
25717
26621
27128
27983
30229
31707
32049
33770
36303
37001
36566
36941
37996
38294
39203
39743
39961
39628
39943
41931
42364
42066
44009
46330
45558
45101
46226
47336
47293
47585
47508
47290
46607
46406
47573
47613
47214
46380
46374
45248
44449
45858
47206
47288
47998
48541
47996
46000
45243
45497
45928
46681
47967
48634
48098
48531
50134
52055
53669
55729
58646
61289
64148
68365
73826
79524
85858
93394
100453
107774
116473
125354
136210
147821
159225
171555
183509
195294
207619
220654
234899
249383
263481
277344
291495
305999
320856
335848
350980
365099
378547
389825
401388
413061
423161
432868
441991
449501
456539
463288
469471
474234
478743
482398
484524
486559
488209
488207
488561
486851
484713
481485
477125
473949
468179
461249
454071
445449
436281
426664
418091
408264
396804
384331
372633
360028
349014
338308
325182
310378
296524
282724
267874
253981
240016
226087
212594
200016
186756
174702
162438
149368
135623
123416
111129
98564
85792
73453
61938
51221
40171
28360
16769
5407
-5260
-16950
-28658
-40481
-53026
-64884
-75857
-85499
-95656
-107277
-118096
-128161
-137217
-146988
-158015
-166682
-175867
-185817
-193971
-203016
-212532
-220979
-228961
-236442
-243144
-249086
-253429
-257172
-259861
-263552
-267757
-271204
-273544
-275344
-276743
-280126
-282194
-282817
-282294
-283127
-284386
-285445
-286287
-284241
-281069
-277570
-274678
-271377
-268208
-264963
-262302
-258885
-254020
-248926
-243878
-240266
-235584
-231368
-227249
-222037
-215744
-211171
-206902
-201277
-195946
-190772
-186201
-180672
-174717
-169634
-164972
-161187
-157974
-154609
-151149
-147593
-143806
-140218
-135537
-131211
-128219
-124827
-122485
-120880
-117957
-115109
-113275
-112933
-112368
-110914
-109564
-106971
-106322
-106235
-105749
-105726
-104031
-103257
-101970
-101161
-101501
-100875
-101759
-102406
-102316
-101605
-101960
-101351
-100745
-101659
-103259
-103295
-103041
-103984
-105249
-106138
-106353
-105904
-106225
-106058
-105151
-104692
-104243
-102626
-102166
-103091
-103066
-102817
-103007
-102186
-101574
-100167
-101061
-102699
-102913
-103214
-102118
-99844
-98352
-98475
-99169
-99341
-97201
-96387
-96013
-95632
-96069
-96084
-95001
-93130
-90827
-89499
-88988
-87882
-86746
-86599
-86096
-84395
-82116
-80384
-79082
-77524
-77020
-75934
-73069
-70121
-67387
-65996
-64462
-64415
-64214
-63163
-60967
-58717
-56752
-54366
-51304
-50441
-49202
-46184
-44629
-42637
-41291
-39549
-38154
-36822
-35234
-32788
-30356
-28372
-26477
-24337
-23257
-21924
-19433
-16749
-15034
-13464
-11414
-9237
-7914
-6719
-3984
-831
693
1341
2766
3348
4637
6819
7631
8419
9953
11319
11913
12573
13906
15530
17771
20115
21533
23171
23133
23368
23794
24793
26326
27186
27874
27842
27755
29168
31165
32531
32656
33251
33826
33167
32644
32860
34161
35004
35736
36976
36782
35428
35801
35946
36256
36589
36758
36921
35659
34833
34360
35179
36189
37571
38536
39286
39608
41273
43649
45211
46282
47629
49021
50127
53122
55573
58967
62188
66186
70570
75054
79939
86040
93418
101293
109814
120092
129932
140173
152319
163928
176395
190938
205120
218990
231879
245904
260896
276434
291306
306306
321253
336501
350551
364329
378230
391172
403631
416164
426839
437154
447036
457167
466362
474758
481773
488120
494545
499080
502299
505656
507661
510065
510554
509103
505955
501566
496635
492896
487304
481482
475191
465721
455122
444234
433688
424040
414082
401408
388514
375628
362259
349527
337038
323329
308982
295641
281685
266320
252333
239882
226443
212146
198531
185481
171794
157839
145591
133668
120268
107896
96443
84665
71134
58824
46346
33306
21930
11700
1306
-10352
-22920
-34062
-43169
-53854
-63269
-72916
-81367
-91753
-103211
-114155
-125788
-136334
-146221
-156156
-166881
-176784
-186991
-197011
-206104
-214700
-222907
-230004
-237774
-244106
-249252
-254605
-260029
-265604
-270746
-276652
-281487
-284487
-286593
-288686
-289997
-291078
-292543
-294685
-296505
-296307
-295616
-294012
-293930
-293616
-293367
-293039
-291334
-289019
-285936
-283160
-280357
-276747
-274251
-271251
-266827
-262079
-257066
-251441
-245563
-241716
-238210
-233040
-226134
-219864
-215186
-210556
-206346
-202726
-197833
-192675
-188416
-183531
-177791
-172659
-169404
-166911
-162854
-157764
-154220
-150313
-147171
-145077
-143791
-142100
-139482
-136867
-135862
-134564
-132052
-131466
-130752
-128494
-125801
-124179
-123561
-124500
-125372
-126075
-126547
-125301
-123902
-122844
-122534
-122193
-123027
-124636
-124074
-122706
-122845
-122857
-122114
-123787
-125578
-126150
-125790
-124001
-123766
-124049
-123207
-123501
-124119
-123280
-122770
-123170
-122625
-121420
-121788
-122334
-122452
-121797
-121518
-121546
-120386
-118612
-119411
-120437
-119326
-118939
-118799
-117761
-116258
-115465
-115874
-114355
-112214
-110295
-108116
-106394
-105120
-104959
-104284
-102082
-101379
-100717
-99157
-97055
-96159
-94978
-92553
-90742
-88769
-87422
-85773
-83045
-82130
-81043
-79617
-76822
-73903
-71411
-68237
-66550
-66427
-63306
-60778
-59311
-58222
-56893
-55504
-54314
-52151
-50271
-48036
-46491
-44382
-42560
-41499
-39845
-37624
-36549
-34673
-32187
-29896
-27834
-27838
-26529
-24705
-22631
-20239
-18272
-16448
-15016
-13739
-11665
-8921
-6261
-4643
-2221
28
1208
2903
4843
7484
9551
10938
12280
12221
12581
13329
14304
15193
15768
18001
19845
20851
23773
25030
26002
26581
27239
28118
27628
27625
29077
31081
32709
34382
35984
38132
38430
38286
40334
41541
42419
42942
42336
42324
42414
42673
43145
42844
42944
44400
44561
42973
42368
43280
43885
43719
43548
44449
44768
45536
45685
45965
46963
47649
48040
48145
47339
46954
47371
48313
49072
50974
53357
54747
58035
61810
65281
69263
74000
79308
84465
90111
98263
106819
116231
126400
136619
147807
158851
171413
185704
200768
216657
231664
246719
262239
277421
293485
310088
327676
344691
360902
376902
390513
404663
419302
434634
448634
460797
470846
482102
493485
502892
510158
518008
525549
531693
537948
542133
544243
545996
546503
546708
545757
545295
542679
539142
534801
528451
522114
516104
508741
501123
491146
479966
469066
457438
446044
434537
421841
409422
395853
382453
370032
356196
342799
329246
314906
298607
281991
266989
252285
238469
223865
208336
194175
180152
166195
153663
141136
128434
114051
100792
86188
71924
59545
47429
35128
24916
13969
1732
-11124
-24071
-35380
-46102
-57239
-67747
-77259
-87861
-99162
-110067
-120591
-133097
-144792
-154641
-163295
-173158
-182065
-189771
-199130
-208792
-217910
-226406
-236282
-245107
-253628
-260880
-268702
-276937
-283997
-290847
-296992
-301329
-305472
-309262
-312131
-314374
-316219
-319019
-321728
-323717
-324912
-327007
-329011
-329164
-329813
-330052
-328755
-324824
-323862
-323069
-321079
-318822
-316815
-314337
-309748
-303711
-299349
-295063
-290729
-287371
-284754
-281394
-274939
-268827
-264889
-260251
-255309
-250750
-246365
-240931
-235431
-230329
-225357
-221227
-217085
-213502
-209602
-205066
-199212
-195277
-192707
-189354
-187129
-184288
-180861
-177861
-175174
-172367
-168355
-165607
-164541
-162849
-161167
-158777
-157822
-156775
-155382
-154784
-155139
-155329
-154014
-150684
-149309
-149260
-149774
-149941
-149979
-149552
-148572
-148906
-148239
-146957
-147751
-148554
-149302
-148575
-148594
-148927
-148326
-148824
-149677
-148209
-146720
-145484
-143964
-143102
-142867
-144097
-144309
-143309
-142090
-141882
-141564
-140537
-139758
-138902
-137131
-134909
-132412
-131040
-128792
-126491
-125054
-123668
-122783
-121709
-120472
-119112
-117801
-117761
-117462
-116375
-115269
-114039
-112627
-110005
-108100
-107283
-105422
-103371
-101665
-100151
-98333
-96299
-95077
-93609
-92407
-89549
-86992
-85767
-82789
-80636
-78951
-76095
-72133
-70617
-68934
-65867
-63232
-61797
-60417
-59355
-57126
-54319
-51078
-48219
-46303
-44712
-42651
-39456
-37645
-35427
-33459
-31952
-29532
-26367
-24321
-22659
-20879
-20146
-19019
-17532
-16457
-15445
-13776
-11779
-9158
-6342
-3181
-1494
748
3443
5302
6091
7263
8403
10517
12297
13892
15523
17846
19940
21561
23791
24589
24701
26769
29642
31113
31928
33499
34944
34606
35286
36321
36803
36508
36739
38364
39740
40653
41041
42279
42672
42958
43000
42386
41467
42388
43562
43774
42217
42608
44159
44029
44402
45251
46731
48541
48867
48960
48255
47419
48614
51166
51448
52142
52651
53051
52186
51600
52247
54028
53952
53516
54713
55624
56495
58225
61604
65523
69232
72923
78834
83981
89901
97732
106448
115516
124576
135379
146346
156997
169311
183242
197809
211560
225910
240961
256489
272316
289456
306793
322787
339069
353620
368535
382523
396628
411521
426372
439453
452605
464384
474094
484769
496006
506221
514919
523147
530744
536495
540870
546121
549723
552239
553564
552834
552573
549739
545739
541990
538473
532961
527518
520173
511466
501071
491283
480375
468163
457341
446079
433909
422124
408837
395253
380033
364854
352708
339498
323601
307369
292781
278401
262718
247836
232749
218673
204508
190616
179278
168445
155882
142814
129828
116178
101687
86696
73219
62571
51164
38321
26538
15146
3909
-5703
-17810
-29880
-40421
-50924
-61562
-73200
-83657
-93817
-102928
-112461
-122022
-133291
-145998
-158509
-170094
-179417
-189134
-198478
-208342
-217789
-226827
-234995
-242878
-251661
-259782
-266573
-273161
-280872
-288241
-293221
-296351
-297838
-299691
-304786
-309380
-312956
-315847
-316754
-317861
-318843
-320221
-320246
-320877
-321877
-321492
-321898
-320277
-317220
-313237
-309893
-307191
-304269
-300046
-295639
-290514
-285900
-281492
-278044
-273592
-268797
-264354
-259617
-255914
-251824
-246704
-241881
-236896
-232595
-228448
-221699
-214381
-208637
-204965
-199956
-193157
-188437
-184457
-181204
-177037
-173844
-171124
-168108
-165267
-162378
-159472
-157469
-156361
-155298
-153061
-149380
-148584
-148314
-148367
-147651
-148854
-148914
-147684
-145496
-143444
-142486
-142293
-141345
-142663
-143347
-143934
-143589
-142133
-141546
-141011
-140904
-140643
-138299
-136860
-136721
-137011
-136265
-135466
-136201
-136068
-135677
-136551
-136377
-135982
-135602
-135889
-136737
-136624
-136167
-134686
-133817
-134504
-134582
-134422
-133366
-131322
-130332
-129057
-127464
-126271
-125884
-124761
-123654
-122442
-121569
-120847
-120003
-118320
-117319
-116099
-112669
-109314
-106752
-105196
-104671
-104344
-103451
-100439
-97332
-95323
-93447
-92116
-92497
-92303
-90797
-88512
-85984
-84151
-82311
-79634
-77524
-75661
-73094
-69626
-67962
-66587
-64529
-61887
-60173
-58275
-56657
-54246
-51445
-49130
-46404
-44574
-43051
-41344
-39653
-37174
-34114
-32834
-31577
-29775
-27452
-24232
-21218
-17056
-13641
-10161
-8161
-7271
-4552
-935
876
2061
3310
4758
5207
6155
7834
9084
10356
12383
13419
12993
13428
15233
15942
16607
17476
18449
19163
19898
21546
23791
25059
27296
29565
29946
29476
30294
31858
34168
35547
36518
36956
36788
36745
37640
39297
39964
40851
41843
42738
41739
40681
40723
41079
39831
39693
40213
40708
40393
40401
40996
40736
40724
41803
43253
42709
41968
42279
44552
45445
45823
47685
48313
48335
49195
52395
56136
59108
62554
66653
69832
74391
81166
88754
95788
104492
112458
122083
131154
140851
152108
163312
175076
187959
201654
216756
231411
245944
260941
277653
294352
309240
324642
339296
353678
367541
381156
394306
407588
419043
429781
442399
453365
463344
472254
479359
487232
495409
501227
506140
510123
512916
513649
513783
513165
511922
511233
509775
506823
502521
498339
493352
486431
478024
470487
462564
453298
443334
433873
424954
414220
403371
391637
378606
365559
353648
341836
327859
314509
302071
289281
275692
261929
247254
231022
214683
201126
190043
177015
164124
151758
139048
124232
109404
96124
85157
72388
60394
47684
35050
21388
8486
-3105
-13713
-25332
-38077
-50096
-62240
-75087
-86694
-98194
-109826
-121006
-133059
-145299
-156164
-167120
-177642
-187737
-197688
-206393
-213938
-222555
-230745
-238078
-244049
-250379
-256248
-261639
-266179
-271629
-275454
-278051
-280272
-281811
-283897
-284621
-285499
-287640
-287622
-286216
-283899
-280684
-277701
-275569
-274602
-272868
-269161
-265320
-262020
-259933
-256712
-254144
-251094
-247205
-242186
-236574
-232464
-228184
-223590
-219646
-214724
-210104
-205592
-201566
-197469
-192492
-188928
-185359
-180459
-176212
-172391
-168330
-165647
-162342
-158674
-155422
-151864
-149311
-146859
-143131
-140821
-139878
-137876
-135616
-132152
-129984
-128586
-127279
-127151
-127633
-127620
-126593
-125609
-126791
-126467
-123081
-122125
-122884
-121937
-121553
-123068
-123193
-122881
-124019
-124771
-125466
-125732
-125787
-126557
-126531
-125641
-126407
-127625
-126378
-125541
-126857
-127780
-127708
-127884
-128272
-128684
-128245
-128527
-128256
-128332
-127967
-128324
-128134
-126668
-125162
-123434
-121664
-119524
-119727
-120322
-119871
-119518
-119792
-119339
-118092
-115327
-114286
-113122
-112342
-110872
-108765
-107809
-107975
-108157
-108135
-106921
-105038
-103138
-102945
-101744
-98698
-98088
-97803
-96082
-93343
-91254
-90188
-88493
-87402
-85969
-85042
-82625
-79959
-78782
-78549
-76807
-75548
-73897
-72286
-70790
-68461
-66317
-65047
-64734
-63742
-61892
-60039
-57674
-56037
-55369
-54443
-54606
-52849
-49851
-48187
-46666
-45256
-42501
-40017
-38513
-37152
-35514
-33987
-32153
-31191
-30754
-30276
-28958
-25775
-22666
-20300
-19469
-18381
-17900
-17475
-16328
-13932
-11519
-8862
-7587
-7244
-6312
-4930
-2602
-129
1042
2562
4276
5331
6521
8334
10094
12049
13954
16229
17503
17646
18581
20380
20562
21735
23729
25177
26775
30050
32940
35011
37244
39181
40734
42446
43345
43991
45099
46569
47674
49078
51825
53576
54696
56395
56459
57450
59385
60497
61883
62030
62794
64223
65986
68171
70111
72103
74283
76383
79451
85196
90836
95339
100954
107433
114443
122743
132525
142023
151944
163204
175364
188254
202740
216843
232141
247987
263545
280372
297830
314419
332555
349571
365583
381893
398894
415334
430449
445601
461446
476816
491820
504380
515885
527153
537353
548046
559172
567272
573784
579020
583789
586119
587209
588294
588943
587637
585571
584011
581451
576664
571199
565663
557777
548227
538156
527303
516873
506338
494968
485616
473629
458171
441814
428814
413607
397904
383453
368585
352304
335946
319398
302883
287678
272864
257966
241696
226261
211338
195568
179464
164994
151678
137123
121991
107279
92568
76572
61113
47713
35774
24563
13325
1735
-10041
-22903
-35172
-47754
-59885
-72003
-84629
-95773
-106474
-117106
-127733
-137849
-148721
-160492
-171038
-181069
-193265
-204486
-213869
-222726
-232097
-241484
-252448
-263215
-272937
-282061
-289658
-296072
-303227
-310433
-316695
-323639
-329681
-335036
-341334
-345736
-348843
-351199
-354257
-355869
-355431
-355541
-356994
-357721
-356508
-356097
-355751
-353877
-351181
-349573
-348103
-345107
-341217
-338667
-334636
-329155
-324136
-318171
-312752
-309018
-303899
-299504
-293814
-286799
-280459
-273533
-267806
-264177
-260300
-255744
-250754
-246669
-242161
-236077
-230494
-226509
-223087
-219281
-215040
-209861
-205864
-203337
-200207
-197057
-195951
-192519
-190359
-187475
-185861
-184617
-184564
-184355
-183583
-181789
-181996
-182938
-181979
-181062
-181429
-181164
-179441
-177939
-177540
-177812
-177532
-177512
-176683
-176264
-174557
-173136
-171794
-171444
-172480
-174030
-174738
-172631
-171429
-170729
-169544
-168470
-168190
-169456
-170915
-170786
-171035
-171393
-171721
-172841
-173839
-173854
-171368
-169867
-170294
-170061
-168049
-166922
-166111
-164217
-160730
-159782
-160566
-159266
-156566
-155874
-154828
-151607
-149467
-150424
-150802
-151395
-150899
-150062
-148189
-146052
-146691
-144725
-141096
-138087
-136281
-133386
-129626
-126974
-124212
-122689
-119677
-118034
-118199
-116985
-115753
-114402
-112134
-110967
-110271
-108098
-105702
-103326
-100807
-97894
-95797
-93576
-91712
-88796
-84947
-81394
-78080
-75391
-72660
-70002
-68267
-65544
-61481
-57489
-53756
-50134
-47617
-46269
-45503
-44068
-40747
-36851
-33172
-29554
-25935
-24472
-23004
-19687
-15377
-12353
-10447
-9086
-8604
-6855
-5179
-1563
4127
7233
8606
12078
14529
15901
18595
20679
21537
24523
27288
27676
27373
29313
32989
34437
34989
36000
37378
38463
39289
39551
41101
43000
44487
46672
46669
47069
48607
51027
52200
51426
51142
51448
52314
53124
54883
55866
56566
57428
57168
56363
57343
59246
61484
62269
63124
64551
66634
66524
67284
68182
69146
70889
73516
76468
79565
83684
88616
94804
100879
107940
116406
124164
131549
141026
152934
164736
176539
188206
201950
216873
231514
246186
261334
275475
291155
308483
326826
343616
361278
377645
393595
410411
427400
444145
458656
471658
485445
498863
511507
524649
536672
546458
553972
560453
568245
575761
580174
584787
587969
587991
587926
586854
583171
581252
579377
574228
567908
561138
553995
545591
537019
527451
516604
505972
493834
481319
468287
454849
441710
430174
417139
401433
385152
369263
355649
342369
327481
312567
297022
280584
264015
247769
232760
217923
204816
190756
175131
159053
144598
130693
116641
100988
86611
71439
56658
43006
29204
15753
2531
-8959
-19972
-30791
-42802
-55883
-69279
-80598
-90465
-100244
-110144
-122687
-136266
-149722
-161362
-172395
-183255
-193756
-204536
-215599
-224740
-233445
-245028
-255081
-262159
-267119
-273319
-279297
-284408
-289366
-295553
-300968
-305058
-308183
-310654
-312311
-314210
-316203
-316556
-315749
-314741
-316047
-316192
-313892
-309777
-307257
-307641
-306586
-302966
-299024
-296079
-291452
-287863
-283811
-278228
-273499
-270256
-265906
-259107
-254098
-248540
-241742
-234669
-228626
-224284
-217831
-211431
-206629
-201182
-196016
-190846
-186652
-182570
-177826
-173496
-169743
-165415
-161034
-158081
-156811
-154082
-150769
-149689
-148686
-147213
-145819
-144012
-142339
-140220
-138272
-135209
-132422
-129392
-129022
-129079
-128269
-127762
-127742
-126604
-126844
-126683
-126121
-125436
-124430
-124134
-124356
-124557
-124781
-126027
-126505
-125602
-125274
-127637
-128173
-128117
-128271
-128721
-128690
-128127
-126612
-124927
-125116
-125694
-125177
-125365
-124564
-124764
-125887
-125564
-125612
-126043
-126161
-124295
-121088
-120287
-121709
-121794
-121772
-121119
-120704
-119282
-117299
-116852
-115721
-114416
-113402
-112578
-110116
-108241
-106910
-104612
-103088
-103654
-103334
-101319
-98789
-95700
-92895
-91387
-90088
-89231
-88879
-87659
-86722
-85920
-84363
-82566
-81344
-80541
-78215
-75506
-72956
-70382
-67928
-65544
-63819
-63257
-61610
-58809
-55289
-53472
-52517
-50794
-47811
-46267
-43637
-40161
-37239
-35336
-33325
-31791
-30706
-29391
-28795
-27842
-25768
-25297
-23451
-21314
-19276
-16129
-13415
-12065
-9167
-6912
-5377
-4662
-4044
-1529
323
1607
2440
3929
4677
6065
8599
11606
13715
14974
16243
18149
17974
19611
21436
22393
22883
23142
24859
25346
26053
27909
30161
31258
31475
32852
34708
35219
35662
36166
35739
36121
37301
37461
36514
35528
34949
36170
35884
35472
35834
36414
35561
34675
34274
35359
36164
35748
37071
37115
35681
35359
36933
37551
38247
39873
39833
39803
40337
41793
42326
42971
44314
47441
50575
53633
57882
63107
67295
71800
78556
85850
92573
100644
109933
120237
131113
141429
153668
166905
182528
198188
212439
226848
242468
259442
276858
294283
312236
329429
345051
361218
376783
392529
408094
423743
438069
451546
552479
555956
558864
559616
559556
557781
555511
553901
548418
541475
536049
530494
523937
515256
507981
500196
491251
480481
467307
303861
286488
269891
254374
238156
220666
204496
188189
172158
156891
141182
125077
107904
92234
78694
66171
53185
38554
24274
10876
-3067
-17485
-29838
-42347
-55689
-68319
-81401
-94775
-106816
-119783
-133281
-146791
-160162
-171758
-182526
-195444
-206746
-217234
-227381
-237057
-245740
-253534
-262356
-270814
-276771
-282629
-288362
-294480
-299877
-304845
-308536
-311870
-315583
-318235
-319315
-320626
-321592
-321781
-322596
-322484
-319582
-316985
-316139
-315039
-311828
-307372
-305666
-302644
-299706
-296602
-292210
-287086
-281030
-274265
-267501
-261917
-256557
-250472
-244397
-238702
-231077
-224389
-218094
-211352
-205439
-198669
-192068
-186406
-180089
-173923
-169884
-166161
-162561
-158322
-152359
-147638
-143347
-137840
-132394
-128046
-123611
-117974
-113492
-111862
-108386
-104526
-104579
-103210
-99981
-96885
-94957
-94887
-95581
-93562
-90756
-87569
-85821
-83536
-81709
-79715
-78692
-76944
-76452
-76182
-75109
-73772
-74386
-75756
-74227
-72386
-71663
-70426
-67859
-65659
-65381
-64204
-63449
-64864
-65256
-65139
-65074
-65024
-64349
-64047
-64972
-65629
-64769
-64150
-64561
-64851
-65191
-66474
-66921
-67414
-66311
-66070
-66619
-66772
-67094
-67459
-67925
-66671
-65197
-67217
-67802
-67100
-67409
-67822
-68537
-69743
-71939
-72077
-71584
-72467
-72839
-72839
-71717
-70224
-69849
-68129
-66261
-65664
-67625
-68852
-69070
-70731
-70692
-70562
-70537
-70638
-70809
-71097
-70781
-70383
-70224
-70377
-69894
-69767
-69191
-68944
-67949
-66235
-65645
-66021
-65114
-63832
-62762
-61016
-59376
-57569
-54376
-53200
-52547
-51622
-49648
-49158
-48694
-47434
-46851
-47782
-47289
-45719
-43764
-43128
-43312
-43087
-42332
-42747
-42184
-41839
-40261
-39727
-38023
-36731
-35174
-34664
-33877
-33163
-23797
-11717
-9786
-10748
-12195
-12830
-13249
-14198
-13683
-11705
-11487
-12126
-12718
-12221
-11361
-11476
-11692
-11830
-11630
-12763
-13325
-13935
-12394
-10499
-9886
-10767
-12942
-12647
-11604
-11073
-10253
-9389
-7007
-5323
-3777
-1628
3708
9854
15751
21634
28688
36156
44159
54822
67043
79186
91743
106304
122559
137281
153004
169259
186469
203306
222413
241786
259489
279956
301593
323725
344038
364177
384425
404305
423609
444969
467244
487082
505379
524623
544218
561885
576350
589606
602005
614058
624237
634658
642069
646809
650244
652245
654141
655293
654789
653259
650653
648171
641902
631868
620615
610369
599868
587013
573738
559663
546761
530892
513831
499162
483402
463887
444030
424359
403802
382952
361669
343268
323337
302391
281811
259656
237426
217413
198697
180895
160502
139721
119270
99032
79228
61219
44436
26912
7269
-10490
-28078
-46142
-61313
-74603
-90224
-107746
-123901
-138521
-153464
-168605
-183762
-197149
-210095
-225861
-241070
-256949
-273109
-288439
-301115
-314594
-326847
-338327
-345573
-353513
-363765
-374032
-382266
-390981
-401877
-409788
-415209
-420243
-424165
-427101
-429124
-432764
-435249
-435412
-434300
-433871
-433287
-433086
-433597
-434934
-433396
-430555
-427814
-424142
-418689
-414379
-408252
-403767
-399251
-394192
-388573
-382594
-375592
-368018
-360344
-353368
-347259
-339836
-332910
-324514
-316415
-308723
-299131
-290554
-285009
-278586
-271724
-265361
-258452
-251777
-242964
-233854
-227561
-223124
-217576
-211265
-206391
-200479
-196164
-191159
-188714
-186866
-182122
-180089
-178183
-175486
-172331
-169168
-165803
-164267
-161666
-160440
-159664
-159182
-158673
-156817
-155841
-156328
-156824
-156446
-156513
-156063
-155136
-157172
-156386
-156107
-157770
-159487
-161317
-161561
-161557
-162298
-161540
-161567
-163264
-163872
-163154
-163341
-163239
-163371
-164909
-166581
-167034
-166226
-168062
-169664
-172434
-174004
-172743
-172708
-173735
-173662
-171614
-169140
-167076
-165501
-164099
-162879
-161812
-160928
-160288
-158923
-155157
-153367
-151292
-151389
-152144
-151427
-149062
-146069
-143152
-141281
-138461
-134980
-131471
-128722
-127402
-125981
-124387
-121516
-119242
-116994
-113428
-110764
-106869
-101547
-98484
-95588
-92189
-90074
-88062
-85785
-81527
-77807
-76089
-73431
-71516
-70746
-67924
-63344
-59329
-56187
-52377
-47866
-44809
-43962
-42383
-37698
-35736
-33901
-30924
-26951
-24217
-22372
-19673
-16747
-14341
-11596
-8365
-4830
-629
3369
5736
6886
7851
9038
10862
13033
13231
13501
14935
16254
17566
20729
23515
23559
24868
26613
28658
30361
33370
35866
37739
38601
39352
40356
41294
42439
44461
45213
47099
48800
50489
51769
52701
53861
56244
57769
58659
59799
61771
63176
64478
66073
69401
72018
73921
76196
78369
81100
83152
86382
90036
95790
102957
111046
120234
130880
141977
153728
165766
178795
193087
208374
225562
243393
263258
283923
303872
326283
348399
372640
399129
424939
450957
477898
505746
531621
556043
581309
606505
630977
653283
679072
703841
724446
743533
763637
783404
800381
816746
831924
845163
855253
864093
871570
876048
880923
883841
886193
885259
884424
881273
876297
871191
863951
856478
847763
834787
821704
805355
789692
772482
753893
736833
717945
696627
673966
650766
628234
605556
582497
556054
529919
505130
477277
453215
431961
405048
376946
349468
321815
295963
272768
245684
219873
197098
175421
148449
121561
94749
68431
43844
25464
7833
-12351
-32175
-50204
-66346
-84841
-104246
-124742
-148930
-170962
-190384
-209246
-224239
-242087
-261112
-279611
-293894
-312762
-330607
-347293
-363426
-380044
-397200
-412962
-427109
-440803
-453817
-465381
-476006
-486051
-494184
-502190
-509213
-514922
-522990
-526749
-529242
-532626
-537360
-541314
-542569
-542690
-541036
-538287
-535105
-529007
-523612
-520496
-514727
-509145
-502214
-494225
-481676
-471600
-466103
-461265
-456225
-448581
-436339
-424186
-412631
-405593
-398314
-389813
-382644
-371846
-360964
-350991
-341258
-331523
-323029
-315276
-307037
-297093
-288162
-274455
-228637
-195718
-178470
-168116
-163993
-162824
-161719
-162375
-167779
-172654
-176919
-179654
-183726
-186262
-188602
-192917
-198034
-201359
-206306
-211107
-213921
-215424
-216167
-216979
-218109
-216979
-219082
-219239
-219313
-221684
-225077
-226251
-225388
-224438
-227472
-231509
-229977
-227994
-230293
-232666
-232637
-234400
-237877
-239789
-238084
-238457
-238844
-237336
-238804
-240823
-239717
-238022
-236307
-237424
-237930
-234536
-233000
-235415
-238011
-238995
-239106
-238231
-235675
-233145
-233571
-233674
-233312
-230329
-227181
-224986
-220991
-219007
-219511
-218910
-216559
-216294
-215675
-211987
-211204
-212754
-210857
-208628
-207964
-206694
-203920
-197545
-190594
-187014
-184772
-181942
-179798
-178311
-177317
-174475
-172334
-172615
-169954
-167234
-162004
-157060
-151246
-145872
-142868
-136936
-129412
-124716
-122631
-119705
-113797
-107552
-104004
-102882
-100977
-98497
-96283
-91654
-84974
-80382
-75139
-70312
-68451
-66259
-62983
-56735
-52542
-51836
-49152
-46769
-43359
-39924
-35165
-29807
-28813
-29426
-26384
-23076
-21104
-18036
-15444
-12793
-11642
-9469
-6589
-3996
-767
1341
4533
7484
12876
16099
17264
18426
18122
18118
19980
23187
26149
29448
30778
32497
33036
36846
40719
42699
43984
45605
49229
53866
60171
65559
68254
72170
77464
84204
92848
103013
114304
127441
142831
159141
174176
191966
214469
235333
260118
285417
309357
334353
361692
392743
424393
456200
490008
525821
562346
599259
632683
663888
695288
727760
759985
791516
825598
858456
891764
925181
956527
985443
1011296
1034857
1058367
1077609
1094276
1116050
1132662
1143608
1158838
1169693
1177929
1190399
1199289
1200780
1198698
1192322
1182064
1171230
1158301
1142674
1129738
1117524
1099107
1079933
1056673
1031359
1006851
978654
950016
918421
884309
851406
815486
781573
748576
714515
681754
651662
623569
586841
548311
513800
476258
435187
396336
359428
327256
292151
255936
223330
194261
162089
127789
101386
71158
41094
16012
-6629
-36451
-68586
-99813
-128047
-154711
-181775
-211118
-244644
-275582
-303337
-325437
-346587
-367021
-387747
-406487
-426822
-446091
-466604
-493012
-518631
-542026
-563307
-585099
-608957
-637640
-658229
-674687
-691927
-712759
-734187
-755785
-775020
-787733
-796683
-804781
-810844
-815719
-819465
-822512
-826723
-823353
-821322
-821292
-816844
-814356
-811294
-804256
-797812
-789027
-777487
-767184
-757159
-744446
-732478
-722519
-700756
-683140
-669286
-651589
-640073
-625948
-610184
-595962
-576444
-557743
-541476
-524694
-506601
-490629
-478660
-470723
-459947
-448004
-433597
-420606
-408505
-387524
-376879
-365501
-353571
-342817
-329480
-319787
-308099
-298457
-292487
-285152
-277219
-265466
-257567
-255071
-254550
-253470
-250663
-247121
-244862
-239842
-236436
-231353
-233797
-236902
-235472
-239264
-242929
-244437
-245587
-245505
-243629
-247233
-251070
-252971
-251641
-249842
-252013
-257866
-262368
-263876
-263935
-258159
-255391
-259012
-265416
-271220
-271681
-274361
-273974
-270885
-268881
-265924
-266042
-269515
-273319
-274453
-276423
-278986
-280402
-280837
-276759
-272221
-270116
-265192
-259921
-259854
-257502
-258392
-256315
-255842
-254098
-250554
-249568
-249446
-245059
-242349
-241087
-236696
-230522
-226046
-222362
-217166
-217351
-213662
-210307
-208300
-207378
-205356
-201656
-196167
-188510
-182409
-178906
-175273
-170598
-169676
-169730
-163884
-158701
-154428
-149162
-144567
-144651
-141452
-132976
-130221
-125593
-117902
-109867
-102608
-93979
-89413
-85930
-80267
-76313
-73802
-70780
-66828
-64291
-59834
-53001
-48657
-44331
-38212
-33289
-29243
-28347
-26418
-19614
-16554
-14197
-12211
-8697
-4904
-1350
2925
6663
9193
12523
13006
14806
16634
16992
16893
18500
22701
30074
38725
42091
44574
47698
49424
53547
58233
62168
65276
69064
73757
78569
79419
82804
86060
90468
95681
103284
112968
122238
128630
137136
146676
157932
168839
183946
203197
224444
248823
272308
293162
321234
355328
389063
422714
460271
495860
532873
570923
610849
651663
691514
728431
767969
812545
858331
900836
942629
987250
1031141
1070002
1105589
1141451
1178732
1215936
1255343
1288053
1320144
1350859
1382264
1402284
1415195
1434664
1453486
1461044
1461559
1467425
1472076
1467904
1467665
1458993
1448733
1441557
1425416
1407535
1387711
1363766
1334438
1303000
1272234
1242259
1211462
1181412
1144459
1104299
1060529
1015286
972164
933618
894061
850820
796694
750054
714591
683073
643041
593843
542669
498016
452821
407446
366164
325483
285738
240903
192613
140875
96354
53458
8806
-30312
-63390
-95921
-129555
-166765
-202077
-231253
-266585
-305037
-343316
-383027
-414543
-446498
-478373
-511988
-550084
-583178
-613264
-646216
-673626
-694680
-715072
-736937
-764089
-792124
-818271
-843904
-869046
-897387
-918312
-934167
-947395
-958906
-967971
-972417
-984177
-987909
-991238
-998322
-1005913
-1008215
-1005172
-1001148
-999717
-994227
-989936
-984056
-977822
-963379
-950921
-937078
-919181
-908371
-899947
-886807
-871102
-852842
-838073
-818200
-798429
-776041
-756259
-740090
-722588
-700474
-677809
-654707
-630595
-608379
-593232
-576597
-554520
-533487
-503590
-478551
-460997
-444559
-424680
-405455
-388252
-373666
-361997
-351721
-341304
-337411
-334041
-325202
-319087
-307312
-298703
-291833
-279749
-275044
-275739
-270385
-260191
-258241
-255176
-250705
-242629
-234842
-231444
-234348
-235786
-239630
-241733
-241004
-236195
-235276
-237026
-236069
-240059
-248150
-256244
-267589
-275987
-280238
-286564
-289427
-290184
-291823
-291128
-291577
-295422
-293344
-284402
-279594
-284265
-287329
-290691
-293586
-292762
-296564
-300004
-298652
-296476
-291926
-289534
-287875
-284760
-283280
-282355
-277606
-275846
-278206
-277673
-280539
-281879
-273326
-270277
-271069
-269312
-269504
-266124
-258995
-244334
-237216
-229059
-220019
-217177
-217500
-218128
-213029
-206334
-200200
-195981
-181791
-178446
-174562
-169471
-163224
-157251
-151818
-144275
-134020
-127908
-118857
-110168
-105699
-101154
-99146
-93381
-85387
-79180
-73334
-66499
-61746
-62732
-61341
-53955
-50634
-45972
-40326
-36290
-33594
-29116
-18001
-9236
-5186
-387
5778
8366
12993
18288
23138
24858
26819
28916
34336
50551
65168
91021
129739
137936
136652
133344
131004
127065
123835
121124
118298
116331
114143
112903
115576
116226
125523
139193
143449
144645
142052
139068
140849
142546
145833
151799
157744
167840
186338
205304
223234
246646
267799
285214
309176
337830
371623
402104
437474
476974
515816
556024
596417
639444
686986
740434
796084
845808
890258
934809
981534
1028834
1075509
1125074
1177226
1226961
1278238
1325884
1372137
1412048
1457060
1503264
1538463
1569527
1598005
1622148
1645954
1671970
1702047
1719789
1731076
1737528
1743115
1748250
1744861
1733188
1718014
1699949
1683426
1659507
1639279
1624217
1611898
1581415
1551549
1522036
1481914
1434238
1388018
1334482
1274074
1217166
1161786
1114550
1062414
1019170
976227
926801
878255
833854
783343
729273
669673
613486
565199
523571
476050
412412
356353
303494
248308
198579
150313
115701
74104
23042
-30260
-78532
-118824
-158353
-201641
-238677
-286619
-340500
-380026
-405273
-435635
-479987
-523772
-562304
-601614
-636192
-675954
-712344
-747219
-788124
-829136
-861654
-890027
-921817
-953517
-975292
-1001237
-1023874
-1049414
-1067727
-1082651
-1105334
-1136509
-1163360
-1178372
-1184277
-1184672
-1190939
-1195827
-1193494
-1193986
-1199294
-1196814
-1185951
-1180140
-1175117
-1165636
-1154490
-1155704
-1154473
-1144781
-1126782
-1107612
-1087889
-1058247
-1029091
-1008998
-993528
-979715
-963412
-945901
-925665
-901266
-879482
-865563
-842315
-818368
-788130
-755884
-724580
-694221
-675146
-649932
-631909
-612267
-584762
-559337
-540054
-532952
-522598
-509481
-496797
-479632
-457888
-443901
-423404
-403749
-388647
-378516
-368302
-363135
-359066
-348579
-335881
-330759
-323348
-314852
-310297
-306671
-294986
-290477
-284262
-278426
-284590
-294907
-303144
-308491
-305203
-305832
-312346
-305134
-305872
-312106
-314866
-311531
-313012
-319039
-319682
-324867
-331344
-333824
-332513
-329686
-328916
-329224
-331405
-333288
-335952
-333839
-335959
-337786
-338129
-342327
-344366
-341289
-336418
-331826
-325799
-322952
-321043
-317789
-316465
-316168
-312142
-309694
-307175
-309417
-305477
-297767
-291040
-284618
-279639
-276810
-268414
-262625
-255866
-251394
-244339
-239859
-233673
-224947
-219416
-216043
-208326
-200987
-200163
-201504
-198134
-189869
-183534
-175737
-167169
-158239
-153097
-149373
-141271
-132233
-123374
-116406
-111887
-108101
-101831
-100545
-90819
-79409
-70485
-67198
-66646
-62546
-54473
-52758
-47712
-41841
-36936
-31816
-24389
-20454
-21004
-22056
-16789
-8562
505
10990
19840
26503
31738
37359
41171
45768
51162
56921
61850
66551
71676
76475
85934
92306
92768
94217
96629
93822
92406
101911
105573
107239
107973
108720
107673
110381
120608
126043
130353
136404
141075
143578
143016
149886
159878
168300
177199
185537
194778
206669
221157
238876
258328
277283
295024
318600
346901
376059
400698
434548
476682
516871
559580
607109
654707
700344
752698
807258
859715
914831
968441
1028047
1091203
1150875
1211583
1274786
1340071
1399656
1455194
1504054
1557943
1611524
1661278
1709389
1755957
1808859
1855868
1902170
1949786
1990438
2017799
2033059
2047029
2054259
2041816
2035963
2032062
2028997
2033772
2032421
2025748
2015990
2008888
1996088
1968699
1939010
1906009
1876024
1840590
1792493
1737333
1687879
1640248
1590282
1535409
1472900
1407984
1358043
1300273
1228841
1164017
1102623
1035136
967549
903967
837449
768528
704183
643604
580342
524997
471213
406724
347544
302954
251821
195068
132789
64014
1156
-49841
-104681
-149139
-194735
-233052
-275391
-319145
-369074
-412423
-444936
-490416
-540823
-595219
-646413
-689289
-731700
-779362
-824590
-860415
-904139
-948396
-987712
-1030860
-1065420
-1094379
-1137351
-1176244
-1195917
-1219227
-1244755
-1267864
-1293895
-1318256
-1340424
-1363661
-1391659
-1411807
-1429417
-1445556
-1450452
-1458619
-1462612
-1463114
-1463021
-1458776
-1449269
-1436377
-1429662
-1421071
-1412992
-1400448
-1390727
-1379859
-1373211
-1356840
-1339661
-1319491
-1296237
-1284322
-1264084
-1236223
-1209362
-1181251
-1150668
-1120129
-1095400
-1074363
-1045922
-1002824
-971399
-946083
-918135
-886310
-857402
-844642
-832268
-813467
-784883
-757740
-731580
-706926
-682960
-660631
-629856
-597615
-573261
-557887
-544987
-530166
-519247
-507080
-498822
-498436
-489752
-495900
-498536
-488115
-468523
-460772
-447891
-429436
-422194
-416851
-410319
-402810
-405372
-398203
-397886
-401158
-397846
-394701
-394591
-387791
-385834
-390795
-391394
-388377
-386717
-390269
-392257
-385311
-378624
-381179
-385950
-390733
-401289
-410099
-408799
-407785
-405048
-403710
-397057
-392125
-394334
-399824
-400396
-399086
-390806
-384654
-382150
