Indices,A8_ECG
0,-18823.648691939416
1,-18764.91986152115
2,-18705.281707722515
3,-18647.177666465184
4,-18590.92391432327
5,-18535.234212763156
6,-18480.833514849164
7,-18426.46620146514
8,-18372.06994591959
9,-18318.936663149016
10,-18266.844636034977
11,-18213.796272822256
12,-18159.81932511501
13,-18105.76442361905
14,-18051.16395886043
15,-17997.578006953707
16,-17945.1405345113
17,-17892.713836639516
18,-17840.67367183481
19,-17787.578094491186
20,-17733.179758858572
21,-17678.44634569633
22,-17622.948870076776
23,-17567.28421950323
24,-17511.529452599036
25,-17455.006126589222
26,-17397.836191553044
27,-17341.53185094012
28,-17286.13139202253
29,-17230.9861928874
30,-17176.481465229164
31,-17121.564203799786
32,-17066.16539019605
33,-17011.13248143286
34,-16956.235447931278
35,-16899.337024395896
36,-16840.3207618455
37,-16780.029443909956
38,-16717.872817368232
39,-16655.28775486957
40,-16592.316757544133
41,-16527.711827942403
42,-16461.744977000042
43,-16395.647947818983
44,-16329.354260295038
45,-16262.43104588973
46,-16195.154139477976
47,-16126.432732322357
48,-16056.187283952564
49,-15985.168931443815
50,-15913.116085657239
51,-15841.76671225775
52,-15771.357721650214
53,-15700.869136781224
54,-15630.806963145067
55,-15560.326586202553
56,-15489.354214337358
57,-15418.762599882823
58,-15348.385653807954
59,-15276.683142417845
60,-15203.643419208114
61,-15129.905774974684
62,-15055.089332186375
63,-14980.328739177932
64,-14905.702495815696
65,-14830.333594548252
66,-14754.477550344891
67,-14594.105898727821
68,-14340.472597508908
69,-14033.035533169941
70,-13647.289994003995
71,-13231.10075523968
72,-12786.09367252911
73,-12265.863612444318
74,-11678.871424409263
75,-11085.66796975733
76,-10484.358563964648
77,-9850.076599400047
78,-9196.569890785508
79,-8474.058546779528
80,-7678.1913875538585
81,-6844.0646384667125
82,-5959.46660586285
83,-5081.591585741336
84,-4219.014539995286
85,-3335.1942802454128
86,-2446.7548780311213
87,-1527.5656812192897
88,-574.5543215994503
89,384.64010153974726
90,1355.4960187921174
91,2394.125466771578
92,3501.8107249119694
93,4655.264622638744
94,5868.826148814556
95,7102.946820851123
96,8355.255303741555
97,9657.55507567379
98,11001.324199539473
99,12323.271486478518
100,13620.841220463722
101,14917.921786311586
102,16197.354352085344
103,17503.579197588973
104,18837.97313223118
105,20163.07769065536
106,21487.50911078761
107,22845.813571234765
108,24236.00850068359
109,25646.768679098
110,27085.892343423406
111,28522.312609458982
112,29954.008719224184
113,31402.43189192708
114,32860.274772740086
115,34382.1802844218
116,35975.534441197735
117,37609.09986762152
118,39298.87780768714
119,41018.12295935841
120,42764.77874506417
121,44566.58394238828
122,46418.44851553113
123,48273.29998980245
124,50131.08276536558
125,52011.50553878021
126,53903.116190963236
127,55841.179725407375
128,57828.3248721843
129,59837.76847989583
130,61877.62630813666
131,63584.168111941835
132,64917.18522409678
133,66052.66957871511
134,66884.0653132291
135,67613.40027116265
136,68248.25472706108
137,68589.90843065165
138,68674.04488757493
139,68771.65606725687
140,68875.54793198968
141,68873.2582201992
142,68826.82652204267
143,68516.51896237384
144,67923.19816198756
145,67203.16749091935
146,66302.76754967618
147,65461.25199713957
148,64715.64341712272
149,63911.30450344339
150,63118.132052673594
151,62229.1100396294
152,61231.37846393528
153,60239.85540800427
154,59232.20714692528
155,57969.99883827265
156,56447.62038692947
157,54764.78479814112
158,52860.5915932909
159,50902.57435532711
160,48900.97892324156
161,46721.016542080906
162,44398.88793123387
163,42219.85298747582
164,40196.55172887434
165,38219.91695973748
166,36367.67905021485
167,34441.92142634733
168,32436.566849216633
169,30519.79379522342
170,28653.460482968596
171,26679.356346232096
172,24606.3771258256
173,22487.460837749426
174,20286.960166247143
175,18146.468048443247
176,16075.498798266428
177,13976.32370577216
178,11882.42011227869
179,9551.52278173395
180,6950.789972007056
181,4219.6821169635705
182,1287.3508808115184
183,-1727.8881697860002
184,-4816.623016874783
185,-8101.487681372219
186,-11559.780738593689
187,-14981.212241674586
188,-18365.184125035707
189,-21799.562829896517
190,-25232.97137436803
191,-28822.262167941244
192,-32578.917988253495
193,-36383.27384481895
194,-40271.23213330629
195,-43648.60381588635
196,-46441.63845720653
197,-48954.33902174885
198,-51010.77627316526
199,-52923.448836205185
200,-54706.13629281609
201,-56041.09436543909
202,-56983.112790733685
203,-58003.53917885437
204,-59093.57021543526
205,-60053.32801098499
206,-60992.06232929325
207,-61536.621431554435
208,-61654.38723699212
209,-61614.6228869928
210,-61326.70945147758
211,-61153.88709196496
212,-61155.9529657829
213,-61091.52012526981
214,-61067.65245129842
215,-60929.09903402266
216,-60655.92653225322
217,-60420.04951958656
218,-60189.135292988176
219,-59587.90661458557
220,-58606.64081194855
221,-57404.29172257641
222,-55884.834612078295
223,-54309.608583135705
224,-52694.92431715298
225,-50829.65079727211
226,-48770.30851483097
227,-47020.66683233526
228,-45606.29331261132
229,-44329.57110366545
230,-43328.76709574274
231,-42261.36905362799
232,-41116.67790730936
233,-40189.4594154943
234,-39414.15719022652
235,-38502.730723943154
236,-37470.40164639139
237,-36416.44375974378
238,-35275.87808221898
239,-34303.62532987922
240,-33517.435085820965
241,-32740.85464349219
242,-32034.420876357704
243,-30982.43412172629
244,-29527.911925012562
245,-27912.71564620255
246,-26015.324535457417
247,-24037.349086004815
248,-21995.511931685138
249,-19680.33970610409
250,-17130.81771838006
251,-14712.265865397114
252,-12426.484319198365
253,-10120.884906789646
254,-7885.1397686563705
255,-5448.343356209992
256,-2790.9998376123367
257,-120.88211311298187
258,2623.670421231451
259,4948.5614807365555
260,6780.66766980015
261,8395.703132497245
262,9644.468906889626
263,10761.379652509071
264,11759.509979114211
265,12384.233719745102
266,12675.744041887736
267,13066.297944253389
268,13552.430614848407
269,13944.623271574379
270,14344.5911168393
271,14421.593488619075
272,14146.234272680336
273,13761.81517467112
274,13188.442310914264
275,12689.062142032115
276,12312.125208994456
277,11872.307035204882
278,11448.308102329445
279,10938.212159396975
280,10326.615876107715
281,9733.91800079771
282,9138.735054450019
283,8248.552473781983
284,7054.157237965867
285,5681.916953626895
286,4056.481489647556
287,2377.552902026546
288,657.7642215114201
289,-1266.1143734867908
290,-3351.082005597703
291,-5122.567313787524
292,-6552.440419681312
293,-7834.046980314025
294,-8836.037909320608
295,-9872.22746291363
296,-10952.989294595829
297,-11803.779889734045
298,-12484.313226006292
299,-13278.095553961732
300,-14171.76853821813
301,-15064.294984696788
302,-16019.993386767761
303,-16792.324527535875
304,-17363.61551086345
305,-17905.749063794636
306,-18360.084256519134
307,-19102.652949925177
308,-20186.15642440075
309,-21388.808440704237
310,-22820.70547161853
311,-24301.907458957416
312,-25816.84556047261
313,-27553.85770652513
314,-29477.99927283904
315,-31253.249553678797
316,-32877.24833066042
317,-34490.74436340331
318,-36010.93864335974
319,-37685.437474955244
320,-39531.908932878905
321,-41359.53960347017
322,-43224.46856680258
323,-44756.16296680119
324,-45895.74591996483
325,-46856.92215582435
326,-47526.669889902914
327,-48072.26002889537
328,-48503.73611420278
329,-48633.05789283554
330,-48488.3581237147
331,-48406.53904673475
332,-48385.995990672964
333,-48276.811029705554
334,-48158.51220060308
335,-47776.22325725348
336,-47106.905780774636
337,-46339.01355089782
338,-45410.910327232246
339,-44507.85142954332
340,-43665.59816819926
341,-42749.44248202602
342,-41815.086985555834
343,-40794.073488343485
344,-39674.952221834246
345,-38540.99838492617
346,-37377.59712239141
347,-35970.75502400793
348,-34312.96170545115
349,-32497.127568580727
350,-30467.784780110895
351,-28369.31078509304
352,-26210.6691982687
353,-23872.77825016239
354,-21386.473262371223
355,-19128.78673881176
356,-17123.095450128374
357,-15213.285953630102
358,-13503.88661793073
359,-11747.903909392158
360,-9936.779149693259
361,-8287.583751825628
362,-6753.2483788927
363,-5104.417903856779
364,-3351.1852065437397
365,-1575.96373005125
366,273.56059209149726
367,1999.6438825623504
368,3588.167859726445
369,5177.746541164099
370,6721.488289608201
371,8513.954995810635
372,10596.986930853702
373,12796.26606933235
374,15198.249426650702
375,17663.07702108391
376,20178.649552590876
377,22892.254369887793
378,25776.864726274925
379,28567.936684452347
380,31263.61830883136
381,33975.16220877914
382,36637.453468862885
383,39445.33486458261
384,42412.87202996031
385,45390.02925631732
386,48421.08922022068
387,51125.333276914695
388,53447.356041009625
389,55597.157288739785
390,57459.90888153954
391,59218.44514445848
392,60882.500938922894
393,62254.83065944468
394,63366.729604618165
395,64547.50326241377
396,65793.97024930705
397,66962.01897033869
398,68128.88866515318
399,69041.3670833259
400,69676.83922098373
401,70220.8921554099
402,70612.19791748648
403,71058.12250704781
404,71596.09362904227
405,72081.09675744644
406,72574.94547886112
407,72995.69967173194
408,73331.19040554714
409,73676.8260371892
410,74015.32668306302
411,74118.3584940254
412,73978.78817544424
413,73694.75951214154
414,73207.40995639357
415,72672.86803998778
416,72100.85735913186
417,71363.73846937796
418,70495.04206993798
419,69859.65495110133
420,69478.87348646259
421,69204.27475356801
422,69136.70645402583
423,69034.18455031612
424,68888.6300963536
425,68911.26761270064
426,69055.93657231148
427,69105.08389880546
428,69068.91623664994
429,69024.63562748095
430,68922.8115304961
431,68952.62837264023
432,69127.51017647579
433,69315.42080616317
434,69561.2627126519
435,69574.61520327817
436,69314.74447662641
437,68952.55882913836
438,68402.95241138723
439,67804.87612094209
440,67170.19996492195
441,66353.33003987138
442,65381.14356963718
443,64512.58597370862
444,63749.312508709445
445,62982.71176183741
446,62276.47975788028
447,61439.49769230333
448,60458.006435055955
449,59479.0174528463
450,58459.091770233805
451,57485.05999742659
452,56581.72346563409
453,55677.04070260898
454,54800.119622172206
455,53935.54705247209
456,53079.253965104675
457,52266.15115300993
458,51494.52327816262
459,50646.907868898445
460,49719.84954578973
461,48770.435933493085
462,47769.51764470209
463,46796.130312540045
464,45857.65190704188
465,44891.276296090036
466,43915.59387946825
467,42923.72813213074
468,41908.28144131033
469,40886.224053052756
470,39854.00831339737
471,38801.9121184564
472,37731.33527219228
473,36643.77741984047
474,35537.29874492366
475,34443.61458111139
476,33365.36848820219
477,32285.997136946902
478,31214.117735021526
479,30132.19360032033
480,29038.80602426236
481,27950.144931537932
482,26862.54086306866
483,25634.030516583825
484,24252.38840984635
485,22781.792714143212
486,21181.853862588614
487,19538.17155803287
488,17853.975917044892
489,16049.934133786383
490,14141.895553005319
491,12225.531493539629
492,10297.60600578781
493,8320.937683313765
494,6317.441221226454
495,4207.47119856012
496,1984.7412745456725
497,-294.361420634355
498,-2648.9693976051
499,-4980.946244210546
500,-7275.561841882988
501,-9593.75678434394
502,-11906.732433491929
503,-14259.352122097422
504,-16656.239484258025
505,-19049.394626641457
506,-21447.783847264127
507,-23944.623536149265
508,-26541.35978665101
509,-29198.77061646534
510,-31940.225198346372
511,-34698.7348688276
512,-37469.788115023475
513,-40306.10297621003
514,-43192.80162616366
515,-45737.80621565042
516,-47906.86656615592
517,-49872.8363845718
518,-51523.219224165354
519,-53095.226957464525
520,-54596.06637180701
521,-55804.471862110295
522,-56763.19743152631
523,-57734.2371091166
524,-58707.15676311642
525,-59578.525913448655
526,-60407.26507528913
527,-60972.13465574476
528,-61254.4498750494
529,-61408.32433734459
530,-61379.56519357743
531,-61454.9166104238
532,-61675.391271076114
533,-61863.32365439777
534,-62101.82364375181
535,-62255.77622140893
536,-62310.68368393027
537,-62407.174744729
538,-62517.34749649349
539,-62370.297446847006
540,-61961.03918415215
541,-61401.41739015949
542,-60622.76507689841
543,-59818.67329827994
544,-59001.07505816067
545,-58015.967454955804
546,-56905.49370856898
547,-55932.413173502435
548,-55105.12257539837
549,-54329.46433002935
550,-53676.24004235146
551,-52955.98605357648
552,-52163.53395711755
553,-51456.51201383754
554,-50798.26513902124
555,-50053.64199264123
556,-49231.83973503099
557,-48375.40205547449
558,-47454.32557444187
559,-46593.702317815274
560,-45801.66286858863
561,-44993.22286825169
562,-44198.009496789295
563,-43180.195159117335
564,-41908.91901444668
565,-40517.773589935525
566,-38938.06649697431
567,-37287.236189945965
568,-35574.2778043838
569,-33678.971646041915
570,-31623.882825321718
571,-29609.50790011931
572,-27636.0177538363
573,-25620.229050625006
574,-23611.0015534445
575,-21457.808250066995
576,-19149.676855660564
577,-16801.02357923566
578,-14377.35688200362
579,-12198.096215549453
580,-10308.064195392104
581,-8532.652592633132
582,-6967.5382850155565
583,-5456.140656147025
584,-3989.9534354704097
585,-2735.1076743508115
586,-1664.2954994145898
587,-505.1523413883188
588,739.6836855195194
589,1952.3080219262806
590,3196.798525123155
591,4263.4062655794305
592,5133.865847386475
593,5962.224782459174
594,6697.985681901979
595,7517.3650736682575
596,8452.107246928525
597,9380.489884444405
598,10355.236082056426
599,11306.516422387314
600,12224.50145187987
601,13190.782823539399
602,14190.974501185818
603,15033.618555166551
604,15713.25661835297
605,16312.593261220081
606,16782.617515942613
607,17255.23204982107
608,17739.028247897062
609,18127.067306973026
610,18448.017051539562
611,18994.25479901977
612,19782.5992792448
613,20695.669109820272
614,21814.373724748795
615,22944.16973201259
616,24078.99835854706
617,25388.699530071553
618,26836.40622128521
619,28250.246089559612
620,29638.90296133914
621,31063.390506746295
622,32484.99508142984
623,34054.49010179367
624,35782.84338806645
625,37565.63346553559
626,39438.913996357405
627,41168.79147432982
628,42722.94319780724
629,44239.18592685181
630,45649.26691806975
631,47065.97838829354
632,48499.206619232194
633,49831.72475784973
634,51085.6300823654
635,52469.37938917291
636,53984.57729013686
637,55544.37315160857
638,57200.28015949608
639,58798.87304421001
640,60329.43094477207
641,61910.5029991064
642,63507.474886407654
643,64873.62015192515
644,65996.588970352
645,66966.87781889332
646,67715.90099958355
647,68412.88631058102
648,69060.9734106363
649,69513.26603988999
650,69800.78789075368
651,70056.57115840545
652,70270.90831748933
653,70396.95331031914
654,70463.12162559363
655,70346.1696419091
656,70036.02010465629
657,69614.2835809946
658,69050.32124008081
659,68555.98935011394
660,68158.06767985856
661,67732.17706879122
662,67338.8545440227
663,66871.14836116334
664,66318.89031456277
665,65788.63134215746
666,65258.29919131263
667,64541.39308601281
668,63635.57257684741
669,62615.902949469906
670,61435.40324641802
671,60230.0908561133
672,59008.137286332145
673,57662.50504372605
674,56222.860853333965
675,54812.96899568453
676,53432.815295895474
677,52044.874925346354
678,50681.38700537939
679,49244.448680442365
680,47731.834496807736
681,46220.79021314324
682,44691.99580189654
683,43093.376241266684
684,41430.13577411361
685,39715.016482559826
686,37936.790052013646
687,36148.191993923276
688,34352.063124482505
689,32513.714451524284
690,30645.48382019963
691,28621.03291495568
692,26424.786473504024
693,24125.522479908785
694,21686.537167908507
695,19172.7865912495
696,16588.615358925505
697,13868.561737754671
698,11024.912617636022
699,8160.000839049733
700,5273.18971569836
701,2322.27833309654
702,-668.146581545601
703,-3776.4922794755103
704,-7008.683294234696
705,-10306.083781896652
706,-13686.917927188708
707,-16665.05434989067
708,-19184.66004785252
709,-21486.606091961163
710,-23428.206304003805
711,-25274.635264888446
712,-27036.861878369084
713,-28451.647073867345
714,-29566.031515107552
715,-30751.247197485838
716,-31998.938457675926
717,-33154.31403331723
718,-34303.0573725003
719,-35147.566578991886
720,-35662.23738874232
721,-36060.56590334924
722,-36270.31868499835
723,-36601.92461958952
724,-37104.89762564238
725,-37576.97760831561
726,-38109.410701063454
727,-38566.25258512217
728,-38931.04705674825
729,-39352.22230941202
730,-39801.70370466823
731,-39966.490161866204
732,-39839.264189997055
733,-39552.07863861063
734,-39025.190564781784
735,-38478.34611092391
736,-37925.41935368551
737,-37189.95584762463
738,-36319.72806500083
739,-35702.75910730338
740,-35357.33617749197
741,-35134.381815253175
742,-35140.11042586892
743,-35107.5659214641
744,-35028.83757966766
745,-35132.28647967109
746,-35366.84825872238
747,-35515.86592707079
748,-35591.66012315126
749,-35667.860455204085
750,-35695.90033337683
751,-35869.664832288276
752,-36202.64889412963
753,-36561.49776237245
754,-36992.37798840792
755,-37169.52629369328
756,-37048.925048851386
757,-36819.27109102375
758,-36385.552928643745
759,-35907.028583178464
760,-35396.85160723498
761,-34690.52665237723
762,-33818.962705836915
763,-33066.65863293192
764,-32434.952129767582
765,-31805.470868945264
766,-31248.084273966426
767,-30551.575218528826
768,-29700.881872841484
769,-28858.018419321037
770,-27974.988827441546
771,-27250.384799079144
772,-26722.064231574335
773,-26262.41567308634
774,-25933.43940146985
775,-25659.284102804093
776,-25433.4195013701
777,-25351.144708406104
778,-25400.10243818145
779,-25377.327679389487
780,-25281.334619004145
781,-25205.060357570484
782,-25099.675732465505
783,-25112.79095771338
784,-25257.773280697354
785,-25422.7284384484
786,-25642.956042516147
787,-25841.774795819536
788,-26000.626520437163
789,-26182.386197532902
790,-26363.037929300724
791,-26563.333332451148
792,-26788.508900837813
793,-27006.84385195267
794,-27222.780644281884
795,-27539.074967785895
796,-27960.173030237853
797,-28439.63651080144
798,-29004.272780485684
799,-29586.945843763213
800,-30183.20206405759
801,-30849.295778455053
802,-31570.86296201012
803,-32119.319754535318
804,-32478.53312098635
805,-32746.03255764875
806,-32857.82338125448
807,-32959.419835589906
808,-33055.93950479322
809,-33017.08478524764
810,-32870.269921764375
811,-32759.514698094525
812,-32678.934786548536
813,-32575.13333440944
814,-32480.950613596877
815,-32273.634209986936
816,-31944.017856580005
817,-31578.322053228752
818,-31147.243482336427
819,-30821.93191612507
820,-30627.074907496124
821,-30459.659715571277
822,-30369.8630627208
823,-30277.282476419903
824,-30174.47575269308
825,-30146.38142604581
826,-30177.2341222154
827,-30110.34139543913
828,-29944.086061473772
829,-29744.266611103878
830,-29472.019115635172
831,-29241.68439033749
832,-29061.263902802286
833,-28841.940424173503
834,-28609.447140649678
835,-28302.25209170922
836,-27904.132110269486
837,-27462.21172419269
838,-26955.99845097778
839,-26399.544429598278
840,-25795.091786918078
841,-25116.29318835876
842,-24364.717699758377
843,-23617.264740287213
844,-22875.451078869675
845,-22101.842503640644
846,-21315.111488422976
847,-20461.93257094267
848,-19537.027071240856
849,-18581.63615781082
850,-17582.882828592257
851,-16551.455483868565
852,-15492.44515548936
853,-14390.978487103614
854,-13250.836394810814
855,-12074.263548946888
856,-10859.706087600583
857,-9609.288677337412
858,-8323.147875580142
859,-6975.23197691308
860,-5563.462315197186
861,-4100.179141947206
862,-2578.159770387154
863,-1012.3057388077251
864,596.5997246504223
865,2262.412301681466
866,3982.260331722108
867,5661.54914504645
868,7292.757921373375
869,8918.625276398006
870,10512.572814533982
871,12132.877787971152
872,13782.032511077428
873,15407.090326543308
874,17019.160686650084
875,18681.709210508983
876,20392.85523908818
877,22128.63303732986
878,23903.83125910806
879,25665.992287118504
880,27411.336496145297
881,29177.527490104152
882,30952.23996199545
883,32802.765281707834
884,34739.39996623491
885,36721.22117235419
886,38768.21320127216
887,40849.90601445187
888,42963.546139875885
889,45142.338534944356
890,47380.49589945877
891,49615.316608520196
892,51846.24115094824
893,54100.125575588274
894,56361.54632308459
895,58676.314377782764
896,61047.86227500877
897,63440.85901042058
898,65865.77688099915
899,68004.03174926034
900,69819.04320474644
901,71467.33866271412
902,72855.21057656556
903,74156.78572744694
904,75378.80283025837
905,76348.17660066768
906,77095.50742696265
907,77862.67878767275
908,78643.75932706817
909,79337.53863523401
910,79999.52901238606
911,80434.84833452456
912,80626.41139844917
913,80713.27955150076
914,80647.86558216692
915,80636.32834735076
916,80711.00105621673
917,80737.60074567028
918,80776.43324746905
919,80736.15914102872
920,80605.56047246675
921,80483.27456852944
922,80350.18820839084
923,79998.8186650227
924,79424.0834993905
925,78712.92144943657
926,77812.25560116161
927,76867.41411299197
928,75887.2573061372
929,74754.60027743354
930,73500.79156549646
931,72385.09633388725
932,71419.5898566028
933,70504.03548229672
934,69709.22958632222
935,68856.57017606431
936,67940.46647375186
937,67113.2978823845
938,66340.67716637494
939,65476.90700435717
940,64529.899502735694
941,63548.89734193278
942,62500.997461456274
943,61515.86497039304
944,60602.26891393946
945,59670.48185882873
946,58751.1573502861
947,57626.24180051353
948,56265.987063782726
949,54796.30163276924
950,53153.37380313754
951,51443.30941437853
952,49674.61473759497
953,47737.06067558532
954,45651.00491555443
955,43606.470571045546
956,41604.07373888632
957,39564.32097329442
958,37533.663954293224
959,35370.54824774982
960,33064.6080832958
961,30723.92158959876
962,28316.098903661725
963,26158.507594913484
964,24295.20630654672
965,22554.165515336703
966,21030.412451670985
967,19567.183954767323
968,18156.273240467082
969,16963.37529349326
970,15961.227031932505
971,14881.301498440389
972,13726.548721412464
973,12613.125360811415
974,11478.03095449715
975,10528.8426590771
976,9783.740451397269
977,9090.733163932684
978,8499.920997506273
979,7833.189612831824
980,7058.946206207028
981,6299.620039592799
982,5502.096127585786
983,4737.94093998763
984,4017.144652986616
985,3256.984468060775
986,2472.2912815384657
987,1855.300121857566
988,1411.4929031127504
989,1058.180256955071
990,844.6267683786708
991,638.3110923570435
992,430.7281596039633
993,329.40163715397375
994,305.6111117920225
995,67.82816450660616
996,-400.5403867019683
997,-982.4716488896073
998,-1758.5474217612054
999,-2534.423915839918
1000,-3303.9663082749667
1001,-4236.555868590929
1002,-5295.275951920302
1003,-6308.803805005609
1004,-7285.719265320002
1005,-8286.643943789011
1006,-9272.916539195829
1007,-10394.721806958405
1008,-11662.881980156772
1009,-12973.235925938756
1010,-14361.618220471188
1011,-15594.104689431297
1012,-16638.310912657926
1013,-17631.827544310436
1014,-18506.32467986869
1015,-19374.525035152423
1016,-20246.197415495284
1017,-21004.016199821875
1018,-21669.978438542832
1019,-22452.23290639976
1020,-23352.262215292812
1021,-24283.209608780464
1022,-25296.426978856485
1023,-26238.497240724715
1024,-27098.60105374646
1025,-27995.07617623935
1026,-28893.225241809065
1027,-29734.549466035187
1028,-30525.96234193337
1029,-31269.839689452645
1030,-31952.350284049273
1031,-32634.83887027244
1032,-33316.716348581635
1033,-33955.16602808731
1034,-34562.030146527235
1035,-35135.2806656831
1036,-35669.41559402334
1037,-36172.76297938427
1038,-36643.017474781824
1039,-37068.00385084752
1040,-37447.23896376338
1041,-37783.92628812182
1042,-38074.59594489936
1043,-38402.07505395381
1044,-38773.78725155925
1045,-39147.4223726766
1046,-39545.95220697202
1047,-39921.38286537
1048,-40270.33935986963
1049,-40636.89185643678
1050,-41011.23481472382
1051,-41332.8743720111
1052,-41602.208189819954
1053,-41841.888421463555
1054,-42037.03965918033
1055,-42234.6008794764
1056,-42437.297200087785
1057,-42609.48398173063
1058,-42761.53965729913
1059,-42876.40699832436
1060,-42948.36808360583
1061,-42992.73295968603
1062,-43003.50523375286
1063,-42981.66713900723
1064,-42927.9348853517
1065,-42836.09376891783
1066,-42705.91249214678
1067,-42561.73250746926
1068,-42404.21565821987
1069,-42220.98227531129
1070,-42017.95844076216
1071,-41778.84327407364
1072,-41501.89377438621
1073,-41199.87108616091
1074,-40868.791007562955
1075,-40504.0299228573
1076,-40106.34192202633
1077,-39674.81154568987
1078,-39208.2933601637
1079,-38711.94879498055
1080,-38185.43353146884
1081,-37625.041535256125
1082,-37031.5912685607
1083,-36402.47228485035
1084,-35736.82642909122
1085,-35036.22231187189
1086,-34299.6367629796
1087,-33527.11886679524
1088,-32718.49101730514
1089,-31872.623597910046
1090,-30989.265754724816
1091,-30140.8193858836
1092,-29334.268562787358
1093,-28535.294733864866
1094,-27764.662925339046
1095,-26980.219307352894
1096,-26180.154737020777
1097,-25404.33361695375
1098,-24644.948554705217
1099,-23850.033059345827
1100,-23020.89345928159
1101,-22178.176462505115
1102,-21309.80433095464
1103,-20457.982290485015
1104,-19626.022609318446
1105,-18783.571164756766
1106,-17940.685583212384
1107,-17048.290835045904
1108,-16098.702637180171
1109,-15122.682957123276
1110,-14105.70112156433
1111,-13069.59577778506
1112,-12016.609984793033
1113,-10922.852512612768
1114,-9792.605961856398
1115,-8673.251674255744
1116,-7565.5052560165
1117,-6449.168109108575
1118,-5336.067917553578
1119,-4192.173107669971
1120,-3015.088932869998
1121,-1831.5047798014166
1122,-633.7922295068493
1123,627.4870672253185
1124,1954.3901138670965
1125,3329.207034751069
1126,4765.518107755241
1127,6228.626207120608
1128,7717.82801903967
1129,9262.722286410226
1130,10856.838509959445
1131,12474.59491581867
1132,14117.945058524576
1133,15795.49294671245
1134,17501.75902618375
1135,19260.72319561941
1136,21074.23388502457
1137,22926.40847404454
1138,24823.146308959836
1139,26721.610944466
1140,28616.383966850743
1141,30532.328705440454
1142,32457.159741784744
1143,34412.50663249982
1144,36400.31973088634
1145,38398.9606571523
1146,40412.82154419108
1147,42479.120637946435
1148,44598.20890234473
1149,46755.024477360435
1150,48958.86770889126
1151,51182.373620546496
1152,53423.81753505826
1153,55704.544420289916
1154,58018.513203278504
1155,60091.02766392301
1156,61896.28044266011
1157,63558.45191409751
1158,64998.21050607988
1159,66377.9927061152
1160,67702.94762276152
1161,68819.31609155348
1162,69756.16057857653
1163,70702.88752789816
1164,71652.63932165102
1165,72529.39634686724
1166,73375.93264409597
1167,74034.07860548826
1168,74490.29219347717
1169,74855.3156634208
1170,75090.38820502294
1171,75391.77820061849
1172,75788.04761898826
1173,76156.28564761464
1174,76553.44721643317
1175,76888.05075558863
1176,77149.971638038
1177,77434.9851186644
1178,77724.11289153511
1179,77829.41867112808
1180,77747.15571722246
1181,77555.0830124879
1182,77205.43413512979
1183,76831.87080060576
1184,76442.56559426963
1185,75930.80195011989
1186,75325.58278897808
1187,74822.84662293269
1188,74429.7198338087
1189,74074.23168164353
1190,73809.37954357074
1191,73495.78521294711
1192,73129.45151252447
1193,72827.17512182645
1194,72562.00785680418
1195,72230.19428390915
1196,71838.29036099104
1197,71419.71849667393
1198,70951.29054160925
1199,70527.75814724407
1200,70155.33370494316
1201,69769.2101059804
1202,69391.79327955266
1203,68850.48817963326
1204,68122.40030032345
1205,67305.80845709778
1206,66350.34827132836
1207,65341.348791966
1208,64285.405795966166
1209,63094.73450283047
1210,61785.699005650844
1211,60506.06352730492
1212,59256.029748031
1213,57974.097079593266
1214,56696.285604104654
1215,55311.8637165972
1216,53812.72097162021
1217,52283.08420329514
1218,50697.567991633
1219,49246.83160722113
1220,47959.29412608338
1221,46727.208358765405
1222,45608.049145796744
1223,44511.978796371994
1224,43433.58880584509
1225,42470.58115402475
1226,41607.35102680748
1227,40675.20809220245
1228,39675.068480276444
1229,38680.693609671565
1230,37652.12317428037
1231,36717.54235842458
1232,35888.10435974787
1233,35068.86244158592
1234,34290.55257795553
1235,33453.63775492968
1236,32539.260353485126
1237,31617.74072698624
1238,30659.032222196958
1239,29700.725490566354
1240,28748.427159650088
1241,27756.659358526842
1242,26733.109506095832
1243,25789.127347681904
1244,24928.049321778923
1245,24101.25757174426
1246,23337.26411212927
1247,22559.817343396997
1248,21763.834638290202
1249,21011.261124350236
1250,20285.479144678466
1251,19403.610504327207
1252,18354.510072603258
1253,17212.45646495317
1254,15926.634049529817
1255,14617.392456212032
1256,13288.477583454234
1257,11834.047309107558
1258,10276.792438110793
1259,8725.735422587899
1260,7175.498096686084
1261,5586.833331708918
1262,3984.2842624583363
1263,2272.637384237265
1264,444.8245325136333
1265,-1433.1841633560032
1266,-3384.23032589768
1267,-5264.269247860048
1268,-7053.306506947716
1269,-8836.7698183419
1270,-10572.661167762211
1271,-12330.230788034307
1272,-14115.716697975195
1273,-15857.125777052472
1274,-17568.114496154652
1275,-19377.996299883314
1276,-21287.94627794085
1277,-23244.151035546874
1278,-25278.672738314155
1279,-27296.697165169713
1280,-29291.69778491612
1281,-31337.210245096183
1282,-33411.93853377533
1283,-35268.95224025074
1284,-36891.03247396311
1285,-38378.41950818402
1286,-39661.30898571602
1287,-40898.55103918747
1288,-42094.033548681575
1289,-43104.77956249229
1290,-43959.67349158988
1291,-44808.760350170895
1292,-45643.998371825066
1293,-46408.84069998377
1294,-47136.332037056134
1295,-47694.64627787369
1296,-48072.81622027389
1297,-48360.691089874395
1298,-48525.776043667254
1299,-48763.75584191593
1300,-49100.95909684553
1301,-49419.439555199155
1302,-49775.51379118675
1303,-50073.60889063315
1304,-50304.10601613977
1305,-50564.24461706153
1306,-50834.30761791393
1307,-50935.92967282949
1308,-50866.36216564319
1309,-50698.34839736321
1310,-50386.82785618604
1311,-50060.591847393734
1312,-49727.492741682465
1313,-49285.65781771434
1314,-48763.16312683433
1315,-48306.716635782184
1316,-47919.19383793746
1317,-47551.197915976016
1318,-47241.76199762536
1319,-46881.13483239451
1320,-46466.54627657713
1321,-46087.39926225632
1322,-45722.30072372119
1323,-45301.15262155077
1324,-44829.509634248345
1325,-44327.77939396649
1326,-43780.56741781437
1327,-43254.880097500805
1328,-42754.81918060619
1329,-42235.417182348305
1330,-41712.48781582896
1331,-41047.314043072016
1332,-40222.20130941885
1333,-39314.46889575141
1334,-38283.768246020474
1335,-37200.1493283484
1336,-36068.70268917199
1337,-34818.23333360452
1338,-33462.12583273562
1339,-32116.003077891248
1340,-30779.64717467604
1341,-29405.23135048025
1342,-28020.783587136884
1343,-26538.799648168333
1344,-24952.82118152358
1345,-23328.947852450114
1346,-21647.023736026193
1347,-20146.067684207395
1348,-18857.446107775195
1349,-17654.534437611237
1350,-16608.362205395573
1351,-15597.109333914914
1352,-14614.64203949253
1353,-13786.965447501409
1354,-13092.619305872593
1355,-12334.989203536143
1356,-11516.689787394585
1357,-10721.696526972259
1358,-9903.960554386562
1359,-9216.70661764658
1360,-8673.138344352406
1361,-8161.4151329094675
1362,-7718.45289305701
1363,-7205.44504237514
1364,-6598.368121295233
1365,-5990.954324498989
1366,-5341.8804831648085
1367,-4708.150691807544
1368,-4097.273368260276
1369,-3444.1617687364997
1370,-2760.50091611355
1371,-2192.914445444335
1372,-1745.2321314428723
1373,-1354.5091080457937
1374,-1058.1505765126565
1375,-754.3169203114603
1376,-436.36437142358943
1377,-186.41803283129525
1378,17.727343348217694
1379,384.3159076098593
1380,924.697111856954
1381,1556.5652802877705
1382,2337.4044910695984
1383,3127.2550551323616
1384,3921.9117347936794
1385,4842.8965324394985
1386,5863.672130755291
1387,6863.986358665949
1388,7850.2484659610855
1389,8864.684473485262
1390,9880.316409356512
1391,11003.471469596287
1392,12241.856810181946
1393,13522.142609315246
1394,14869.785387629845
1395,16115.702979135456
1396,17236.778448492103
1397,18332.209485432762
1398,19352.72595100573
1399,20380.370549311305
1400,21422.272598711814
1401,22393.518393774466
1402,23310.199589532396
1403,24322.15233333003
1404,25430.466746742015
1405,26572.866007927118
1406,27786.3661379631
1407,28960.518138599513
1408,30087.631622452966
1409,31252.993870864946
1410,32431.693341232713
1411,33568.82614199716
1412,34668.12246376704
1413,35737.37937240894
1414,36762.96748061873
1415,37796.5047755747
1416,38837.89158622507
1417,39849.25396399785
1418,40840.50068666049
1419,41819.51501630689
1420,42782.122546996645
1421,43730.59978708189
1422,44665.469175386905
1423,45570.41842884443
1424,46444.51353750812
1425,47295.51413074685
1426,48119.13081832434
1427,48984.06754126732
1428,49897.085156034125
1429,50822.09578196331
1430,51778.33109807931
1431,52727.18143866395
1432,53665.82096714992
1433,54630.41918332627
1434,55613.1329573383
1435,56561.73002660752
1436,57476.38492286554
1437,58377.119076862735
1438,59251.0686334108
1439,60138.29981667415
1440,61041.228775493175
1441,61929.305598433275
1442,62811.42001760034
1443,63685.63497465569
1444,64548.355892895765
1445,65406.785882073615
1446,66259.48139096297
1447,67100.07797379345
1448,67928.9540411543
1449,68747.77814290425
1450,69555.08471641016
1451,70362.81874042875
1452,71171.85969867787
1453,71975.2585255817
1454,72776.08750491739
1455,73567.76938122872
1456,74349.46897993599
1457,75126.95202343204
1458,75898.63051512692
1459,76652.4561731767
1460,77387.8633877155
1461,78109.32646765994
1462,78813.52794660242
1463,79508.57087443331
1464,80194.62732860673
1465,80864.6500754878
1466,81520.13408380176
1467,82166.89732994603
1468,82804.4208041749
1469,83430.73235262911
1470,84047.03505108521
1471,84647.75619620657
1472,85232.43080716455
1473,85804.66136806688
1474,86363.04438032932
1475,86739.20383215058
1476,86915.99802473486
1477,86970.94488533038
1478,86854.91329827634
1479,86664.82349413105
1480,86403.60403050664
1481,85977.61858172335
1482,85403.84818220817
1483,84801.41522979726
1484,84166.11369254507
1485,83449.02677977161
1486,82676.94358293884
1487,81750.89576650612
1488,80662.04892022158
1489,79479.55027058173
1490,78178.92707034363
1491,76877.4876177601
1492,75592.35470890062
1493,74248.85358776296
1494,72880.87041409437
1495,71433.90633658115
1496,69901.50190153853
1497,68340.47992440347
1498,66739.26423013459
1499,64983.506751066954
1500,63070.49023898691
1501,61047.233749377454
1502,58884.39322683888
1503,56662.451383277104
1504,54386.031462963365
1505,51990.15329630178
1506,49492.00968677435
1507,47018.9396094141
1508,44575.82631001741
1509,42114.49406573461
1510,39669.308587885236
1511,37150.35089530977
1512,34554.66538906319
1513,31957.61048718579
1514,29341.594649299594
1515,26637.01782319182
1516,23847.702757382776
1517,20996.15204987263
1518,18066.513752129576
1519,15121.099498887614
1520,12163.775353889432
1521,9151.21710211073
1522,6097.934154452765
1523,2893.1487985077283
1524,-478.25108806403887
1525,-3953.3055123102577
1526,-7564.584645954814
1527,-11258.093751621363
1528,-15029.870971440503
1529,-18936.27215221391
1530,-22967.178501450682
1531,-27027.633119761736
1532,-31117.729709027542
1533,-35277.48662144191
1534,-39483.95321426317
1535,-43808.636276748686
1536,-48257.04548063496
1537,-52775.227730267434
1538,-57379.79065904734
1539,-61434.93460040693
1540,-64869.794530290106
1541,-67993.93355550618
1542,-70621.07125948167
1543,-73103.00080221308
1544,-75453.33644933073
1545,-77325.48565630247
1546,-78781.72969284424
1547,-80298.91104319532
1548,-81864.95832136866
1549,-83281.885450431
1550,-84659.16024938376
1551,-85611.41271685131
1552,-86105.27225943533
1553,-86415.61640407413
1554,-86448.55486620234
1555,-86619.95010263578
1556,-86994.69154175551
1557,-87303.71435905788
1558,-87668.76026118608
1559,-87904.84494327808
1560,-87989.80989367112
1561,-88123.26737336331
1562,-88266.79451898798
1563,-88005.10205296976
1564,-87328.54874934428
1565,-86411.31953192026
1566,-85147.49093067761
1567,-83829.01107126511
1568,-82473.97534422831
1569,-80847.81380648262
1570,-79013.78991910098
1571,-77474.40281344336
1572,-76252.43700305562
1573,-75155.59987193813
1574,-74321.07265544095
1575,-73401.25410277108
1576,-72385.66882039745
1577,-71570.45087495091
1578,-70888.83368325258
1579,-70061.65365840902
1580,-69104.75035222675
1581,-68112.10260175729
1582,-67020.97522506036
1583,-66081.36089148249
1584,-65310.32358609666
1585,-64535.64426006022
1586,-63816.62428199793
1587,-62728.06754366299
1588,-61212.466458255025
1589,-59515.17869639662
1590,-57512.02106630485
1591,-55410.844999658846
1592,-53228.454423104966
1593,-50749.81615888761
1594,-48015.01918046939
1595,-45393.97960755335
1596,-42888.04306777896
1597,-40342.966016225844
1598,-37849.332053132166
1599,-35131.76336941274
1600,-32170.33800171027
1601,-29175.641026318997
1602,-26084.844669110997
1603,-23349.820650702346
1604,-21039.450329323143
1605,-18896.739858769513
1606,-17058.48811369816
1607,-15314.823132125639
1608,-13653.184658883898
1609,-12304.425459915747
1610,-11232.518289430702
1611,-10034.129492116384
1612,-8711.426589338027
1613,-7441.917546382941
1614,-6130.222422365475
1615,-5082.4914989506415
1616,-4325.771437092836
1617,-3633.5484223998988
1618,-3079.4924018294146
1619,-2431.073459340641
1620,-1644.0270387161484
1621,-884.2827697386678
1622,-81.78393584768621
1623,676.162327929305
1624,1375.9788701953225
1625,2123.3219162073765
1626,2900.0357297646733
1627,3443.139324891937
1628,3744.2457596101917
1629,3917.870031875533
1630,3896.3527422909137
1631,3858.7981388737844
1632,3816.8159196865377
1633,3624.0624314678953
1634,3319.264269306607
1635,3344.510991679469
1636,3726.844785137543
1637,4285.40840075636
1638,5142.900618222287
1639,6008.735038561482
1640,6873.451235806922
1641,7992.423602020697
1642,9310.608864833466
1643,10562.494734799253
1644,11760.616106187706
1645,13000.404274040047
1646,14221.760481352449
1647,15655.407811946034
1648,17318.186185771112
1649,19049.475490159497
1650,20904.354817954394
1651,22535.464788994912
1652,23894.147488887626
1653,25186.152257909063
1654,26309.923523074543
1655,27431.65028382723
1656,28566.04099163186
1657,29539.4267151026
1658,30384.303743818775
1659,31412.425610317452
1660,32626.3368406117
1661,33895.73853682228
1662,35297.68516480705
1663,36603.12692197925
1664,37795.97160454079
1665,39053.31134428294
1666,40323.438698543
1667,41511.23769536139
1668,42626.40324154477
1669,43676.29621049816
1670,44638.122621188755
1671,45608.18717412382
1672,46585.91492087738
1673,47503.1497098145
1674,48378.53583216082
1675,49214.63688058582
1676,50003.189888621324
1677,50754.57697225622
1678,51466.731466384386
1679,52117.09163844134
1680,52704.691019161844
1681,53237.63235672883
1682,53709.76952502239
1683,54249.86301445498
1684,54869.89126612456
1685,55503.62105326732
1686,56186.93150206511
1687,56846.073760535124
1688,57475.87679390469
1689,58144.657081843296
1690,58837.44385626111
1691,59459.15446529149
1692,60010.40457653074
1693,60527.192750565606
1694,60986.19378126572
1695,61461.070426140126
1696,61956.23616059267
1697,62415.836279499956
1698,62856.24551060409
1699,63255.916471959266
1700,63606.49293175185
1701,63929.6981918972
1702,64217.706554872784
1703,64469.240092410146
1704,64685.41812536513
1705,64859.40413084455
1706,64990.41405838187
1707,65113.16187063056
1708,65228.905792108206
1709,65319.77583356787
1710,65394.359590616004
1711,65430.138282370404
1712,65424.73294535255
1713,65396.186059019186
1714,65339.07117161783
1715,65243.056316989736
1716,65108.938857005814
1717,64937.44973500546
1718,64725.96878345762
1719,64484.120843259814
1720,64211.644126065075
1721,63901.304237229386
1722,63554.78872922925
1723,63171.27060760578
1724,62749.584222156336
1725,62290.975509699616
1726,61794.75336853818
1727,61258.87971111055
1728,60683.04675454776
1729,60067.37627025878
1730,59411.10129948042
1731,58742.978911419144
1732,58065.551719570954
1733,57364.463772532654
1734,56647.7253755466
1735,55898.36373632196
1736,55115.28709747652
1737,54314.02092638063
1738,53491.144227711884
1739,52625.502641992265
1740,51717.27594110947
1741,50774.42710258069
1742,49791.78215279435
1743,48785.86635392034
1744,47757.6735475092
1745,46694.73237162288
1746,45600.727174530766
1747,44457.53455051958
1748,43261.93489933815
1749,42025.0344948958
1750,40741.22187635756
1751,39417.84694290878
1752,38055.4356522153
1753,36645.11253963779
1754,35188.06926086022
1755,33701.61121790358
1756,32185.73185866727
1757,30632.55340945774
1758,29046.17431839037
1759,27413.72809935116
1760,25734.015994248297
1761,24016.617331306024
1762,22258.410884099314
1763,20444.39792457582
1764,18573.88858696084
1765,16651.455629269978
1766,14672.822027826503
1767,12648.464191944337
1768,10578.273147703823
1769,8452.988926103975
1770,6274.340589241509
1771,4048.8894245391893
1772,1775.6923218994864
1773,-547.6665893587149
1774,-2920.0523422401443
1775,-5348.498624276685
1776,-7833.803717949958
1777,-10371.901473213342
1778,-12964.751038803684
1779,-15599.360522740724
1780,-18274.405226053823
1781,-20997.769549160952
1782,-23765.95236211307
1783,-26586.0790163906
1784,-29459.038619492458
1785,-32378.36845404753
1786,-35345.749676652835
1787,-38372.772357644084
1788,-41459.814884446845
1789,-44602.63555039666
1790,-47804.34463402458
1791,-51056.87624000259
1792,-54360.000636618104
1793,-57720.50914193356
1794,-61136.84846326886
1795,-64165.651118471775
1796,-66762.29073578898
1797,-69133.1375582654
1798,-71149.44127298423
1799,-73066.92180381401
1800,-74894.35285710594
1801,-76386.05337976139
1802,-77587.60610870764
1803,-78815.03030539487
1804,-80058.2838525131
1805,-81188.77475317422
1806,-82278.35410848315
1807,-83066.5722255482
1808,-83531.0374134897
1809,-83855.47330200915
1810,-83976.20781582539
1811,-84199.76985297716
1812,-84571.94431846085
1813,-84898.4752921013
1814,-85268.6049682593
1815,-85541.84015332135
1816,-85702.1890290706
1817,-85898.34816923083
1818,-86101.16620273446
1819,-86012.57418809412
1820,-85626.27423107887
1821,-85066.23671055245
1822,-84256.61070340576
1823,-83408.48857054106
1824,-82534.85125484041
1825,-81466.7822656596
1826,-80250.07019462704
1827,-79214.14536310986
1828,-78372.20754643097
1829,-77601.19519391099
1830,-76990.55871065102
1831,-76308.6186292458
1832,-75548.60380587052
1833,-74905.97575523335
1834,-74336.06590471973
1835,-73660.93727602523
1836,-72891.36009289643
1837,-72085.75202243568
1838,-71204.26072092104
1839,-70408.0730325296
1840,-69707.94639370816
1841,-68993.3191861953
1842,-68302.36410719703
1843,-67349.59011712957
1844,-66096.83862555587
1845,-64707.55774540878
1846,-63098.41682623541
1847,-61409.94013028114
1848,-59653.19618999027
1849,-57683.313460756275
1850,-55527.30977101057
1851,-53431.200609137486
1852,-51395.5564499888
1853,-49317.921314605876
1854,-47258.382706824945
1855,-45033.08839851886
1856,-42628.64730901813
1857,-40185.221818723374
1858,-37660.75186948102
1859,-35466.2958276282
1860,-33658.90886010221
1861,-32015.684260561648
1862,-30659.682238680216
1863,-29387.90865820863
1864,-28189.70105740921
1865,-27279.609580292938
1866,-26622.310171663346
1867,-25870.056573443002
1868,-25026.64962809635
1869,-24242.483101134592
1870,-23435.95538299926
1871,-22875.83887201939
1872,-22585.6543208879
1873,-22368.565897596865
1874,-22289.427914191296
1875,-22118.24663441069
1876,-21814.160176846435
1877,-21535.36972022048
1878,-21213.27018015867
1879,-20940.13003882687
1880,-20728.85191341433
1881,-20472.666434408806
1882,-20190.689652515357
1883,-20131.348554990316
1884,-20301.73619044641
1885,-20594.95268000946
1886,-21074.661659855556
1887,-21569.633838876554
1888,-22068.86949908969
1889,-22711.303208269277
1890,-23459.82060890766
1891,-23939.051374237013
1892,-24127.688405878347
1893,-24176.316186318665
1894,-23981.195440971074
1895,-23792.67875848146
1896,-23618.663646082525
1897,-23241.01880237893
1898,-22707.306684895415
1899,-22237.930043877277
1900,-21821.827798836366
1901,-21381.060728233817
1902,-20965.36067419804
1903,-20381.456990125396
1904,-19615.430638209444
1905,-18801.30802158854
1906,-17892.975940178312
1907,-17191.737691419334
1908,-16739.292677067868
1909,-16358.452573082537
1910,-16137.226968307996
1911,-15930.398876498937
1912,-15725.39080245399
1913,-15673.334794772429
1914,-15745.894634459582
1915,-15675.033924243131
1916,-15458.851755702693
1917,-15209.190588951962
1918,-14859.9275988077
1919,-14608.63847631597
1920,-14469.258653643514
1921,-14289.399562621018
1922,-14113.748300385332
1923,-13929.631378898002
1924,-13719.090981645248
1925,-13520.208448682024
1926,-13325.159327541514
1927,-13105.300285240408
1928,-12863.085198186043
1929,-12604.97213493344
1930,-12324.624236417885
1931,-12087.736719537472
1932,-11899.383458167435
1933,-11722.998780273228
1934,-11575.864204046087
1935,-11421.699441919318
1936,-11256.594448313572
1937,-11113.02420123234
1938,-10982.7111594666
1939,-10819.2240636055
1940,-10621.999735212745
1941,-10407.131602472195
1942,-10162.539318837693
1943,-9922.440592479146
1944,-9687.959772339127
1945,-9431.484509635822
1946,-9159.864303840079
1947,-8892.078426468453
1948,-8626.286892803135
1949,-8357.761395647307
1950,-8090.6090711561865
1951,-7805.954497675176
1952,-7502.785192312144
1953,-7193.598568901658
1954,-6873.993481276923
1955,-6631.721400566705
1956,-6476.766489960013
1957,-6364.661140056736
1958,-6320.955026051758
1959,-6298.111717232174
1960,-6293.785678984046
1961,-6354.947958655229
1962,-6472.925746902655
1963,-6580.59405019281
1964,-6679.175746914446
1965,-6796.313515786328
1966,-6916.306791936495
1967,-7092.377210373324
1968,-7328.864935303706
1969,-7587.102893241813
1970,-7879.8053352970055
1971,-8155.985572093791
1972,-8406.991254657105
1973,-8666.531697753277
1974,-8919.413017354369
1975,-9186.889139170975
1976,-9471.547578715647
1977,-9749.247174407521
1978,-10024.246596105306
1979,-10348.916018601598
1980,-10724.416587976995
1981,-11128.219908485768
1982,-11573.567402124312
1983,-12023.67393442084
1984,-12476.034070158925
1985,-12959.992215660352
1986,-13467.422117693985
1987,-13737.483628211978
1988,-13746.816177609442
1989,-13611.723645195923
1990,-13257.253176454551
1991,-12839.894311280987
1992,-12364.582698335777
1993,-11684.6824590608
1994,-10828.39942920122
1995,-9972.083473383454
1996,-9109.03441572172
1997,-8169.318869793201
1998,-7192.722285175783
1999,-6031.108487580216
2000,-4671.979565520753
2001,-3218.8646672808027
2002,-1635.5352911912744
2003,-110.0335144084259
2004,1330.4581258810103
2005,2802.9359043039212
2006,4252.81576304752
2007,5768.119937271697
2008,7358.372199696957
2009,8931.544662152879
2010,10505.79656805851
2011,12259.745461664515
2012,14196.736132235334
2013,16242.845209057077
2014,18443.350895381103
2015,20670.77633029345
2016,22917.224734052284
2017,25284.148370194605
2018,27743.78160603322
2019,30120.79772762499
2020,32409.432433188427
2021,34672.745573586304
2022,36863.44277741174
2023,39107.5875778528
2024,41408.62031869694
2025,43661.473241527965
2026,45890.50866327939
2027,48186.28220761483
2028,50542.67154479958
2029,52931.0183493279
2030,55371.42385252777
2031,57780.201143700164
2032,60151.8735644551
2033,62543.30695206572
2034,64934.66184958721
2035,67482.58254312977
2036,70207.5898943759
2037,73020.80913589962
2038,75967.85896575033
2039,78970.78800511025
2040,82023.58411515702
2041,85206.04982040382
2042,88503.18514207433
2043,91781.58512571258
2044,95041.09005654801
2045,98337.0325897783
2046,101636.8756080128
2047,105040.68272534387
2048,108555.72313771986
2049,112105.86915508837
2050,115714.02539563121
2051,118803.5912173149
2052,121307.242161455
2053,123511.26647538091
2054,125245.91625400804
2055,126823.6199441765
2056,128256.9977679909
2057,129234.0993979717
2058,129809.91436993147
2059,130426.5572011524
2060,131073.9027600949
2061,131566.56139143786
2062,132006.32270407904
2063,132038.64923471602
2064,131632.59068235746
2065,131041.99142903058
2066,130180.47917764739
2067,129414.4979135297
2068,128802.34468900507
2069,128104.12364511317
2070,127427.2913557714
2071,126611.16354042859
2072,125635.82115523702
2073,124676.09510412379
2074,123698.45374471096
2075,122331.65223977728
2076,120566.51855819987
2077,118559.16696254621
2078,116214.67137210318
2079,113792.76334242575
2080,111309.44284635836
2081,108555.28706421162
2082,105586.41434998272
2083,102869.75321355427
2084,100427.31504072818
2085,98078.42573236806
2086,95950.70688505335
2087,93723.07443425909
2088,91385.55642811138
2089,89212.48025465148
2090,87142.12643592079
2091,84911.87812678795
2092,82536.05784114938
2093,80103.69720510021
2094,77555.56402035608
2095,75125.42776626497
2096,72829.22177660104
2097,70505.32555394182
2098,68209.09325702643
2099,65549.08025785536
2100,62471.925214615614
2101,59203.98672883235
2102,55630.784411208515
2103,51942.84142846987
2104,48155.56892705173
2105,44071.20277737471
2106,39726.39680495903
2107,35462.74931428492
2108,31281.515925877335
2109,27039.936699532198
2110,22821.618094473848
2111,18372.36895682855
2112,13673.688518039738
2113,8919.899784100331
2114,4052.9385519142816
2115,-288.4821038087864
2116,-4018.032109383455
2117,-7476.621777071027
2118,-10473.466186264615
2119,-13329.205902979089
2120,-16059.768420630591
2121,-18329.497607950205
2122,-20194.16690117462
2123,-22185.12904950996
2124,-24295.38850500302
2125,-26296.028935693572
2126,-28311.232983591537
2127,-29927.537079066842
2128,-31108.62153505309
2129,-32155.877578222357
2130,-32969.25207616283
2131,-33915.48344852813
2132,-35058.19751480405
2133,-36147.4351162885
2134,-37292.1095065345
2135,-38342.03791189033
2136,-39276.63301556412
2137,-40267.06094722508
2138,-41282.04685831421
2139,-41930.24435151507
2140,-42200.63986355385
2141,-42260.67679478004
2142,-42010.00549534961
2143,-41718.927679887594
2144,-41404.53386292783
2145,-40847.523626640475
2146,-40106.3385146185
2147,-39755.98404991938
2148,-39828.19831068463
2149,-40093.257539403705
2150,-40709.72994673462
2151,-41292.21291137138
2152,-41828.441402645854
2153,-42653.01965886127
2154,-43692.49181821341
2155,-44610.95079733041
2156,-45425.29795655799
2157,-46253.4743158612
2158,-47019.579122839226
2159,-48018.49284747981
2160,-49271.16696117384
2161,-50572.953983174724
2162,-51994.030516059145
2163,-53069.558819415804
2164,-53735.22845350552
2165,-54263.498305888235
2166,-54518.4663126753
2167,-54724.28789348651
2168,-54900.056849661596
2169,-54812.29224963702
2170,-54504.52824120439
2171,-54388.85489804584
2172,-54467.850168232355
2173,-54569.32409301018
2174,-54794.714056479264
2175,-54839.594578146134
2176,-54682.262537983755
2177,-54556.96530106245
2178,-54394.63939968001
2179,-54314.500283834175
2180,-54354.192995571175
2181,-54408.08758638463
2182,-54517.07269330061
2183,-54667.75572343372
2184,-54854.155900750404
2185,-55121.355337788926
2186,-55468.70447538689
2187,-55723.20039313116
2188,-55879.04620882791
2189,-56021.575215424964
2190,-56107.66681153728
2191,-56251.87922198726
2192,-56465.10041663997
2193,-56655.52006314793
2194,-56850.07475776153
2195,-57051.716074014534
2196,-57250.83708438867
2197,-57465.91380726433
2198,-57695.43655644484
2199,-57917.703113120544
2200,-58134.363565411775
2201,-58354.63922442442
2202,-58574.25832539985
2203,-58830.52555374602
2204,-59127.509060906596
2205,-59444.50521225182
2206,-59791.97939854356
2207,-60151.59875478904
2208,-60521.8199007764
2209,-60920.99697430618
2210,-61345.47367747629
2211,-61585.890662058904
2212,-61623.69461333516
2213,-61554.86028468929
2214,-61319.74215387412
2215,-61043.37202832004
2216,-60730.69186997179
2217,-60265.265692869936
2218,-59670.28429162449
2219,-59088.95799450412
2220,-58516.79375114984
2221,-57897.87112074317
2222,-57265.14258791
2223,-56500.209285360215
2224,-55593.77260001878
2225,-54630.05177380716
2226,-53580.689372030916
2227,-52588.05316629144
2228,-51673.83969165149
2229,-50749.261682403434
2230,-49856.217617175724
2231,-48930.272881025565
2232,-47964.76351782917
2233,-47029.164707269934
2234,-46110.665212935266
2235,-45073.206658780735
2236,-43914.67528599061
2237,-42692.56764812059
2238,-41372.810678178925
2239,-40053.11414559649
2240,-38740.14655563031
2241,-37357.06789552622
2242,-35925.63540787234
2243,-34661.86097910598
2244,-33579.12294359093
2245,-32591.720847785415
2246,-31760.106549400065
2247,-30941.988321664656
2248,-30133.75380369464
2249,-29461.301158460654
2250,-28898.363483062894
2251,-28318.036966864922
2252,-27727.45623853303
2253,-27172.989823735865
2254,-26626.644940385082
2255,-26200.985842862356
2256,-25904.97921252167
2257,-25661.940156354507
2258,-25499.40248334764
2259,-25243.025498913215
2260,-24869.451796491678
2261,-24482.469601715584
2262,-24031.76343776881
2263,-23602.743503151218
2264,-23203.567211192898
2265,-22747.154642488178
2266,-22250.858126292078
2267,-21871.358698677486
2268,-21610.609199300317
2269,-21404.45880721644
2270,-21292.202280554884
2271,-21159.805345007215
2272,-21000.021801433188
2273,-20902.31086360797
2274,-20841.542055405924
2275,-20701.51675881745
2276,-20480.722784170583
2277,-20216.025580073307
2278,-19876.580235674774
2279,-19551.078458106895
2280,-19241.337423866542
2281,-18875.62847372096
2282,-18471.084902500643
2283,-18079.548792727466
2284,-17696.074823525178
2285,-17306.234934684242
2286,-16921.06558808348
2287,-16489.047259180606
2288,-16006.89347182675
2289,-15508.317792860087
2290,-14980.960345959611
2291,-14537.860154036924
2292,-14192.916661464515
2293,-13883.322646184675
2294,-13641.706083423502
2295,-13409.994395614152
2296,-13183.826058881095
2297,-13021.32365924944
2298,-12911.180179321322
2299,-12759.87383673541
2300,-12567.44596989276
2301,-12372.062787194438
2302,-12150.901367117767
2303,-11974.58188630486
2304,-11848.073228631652
2305,-11717.712492285702
2306,-11599.585723206546
2307,-11427.365717945826
2308,-11188.563212088613
2309,-10925.914044502797
2310,-10618.813602202317
2311,-10292.779280364677
2312,-9950.109089342011
2313,-9559.050512676771
2314,-9123.861670744867
2315,-8712.085296576392
2316,-8324.293862493392
2317,-7929.7439207003645
2318,-7544.7550151754795
2319,-7120.340248366285
2320,-6652.160458612849
2321,-6177.509244831314
2322,-5684.748867906021
2323,-5198.581189149165
2324,-4725.181454545758
2325,-4244.160637437796
2326,-3763.3413622372354
2327,-3276.4338424078364
2328,-2781.8123010611666
2329,-2289.6267117763273
2330,-1798.5886677292337
2331,-1275.287497568346
2332,-718.3240417649328
2333,-142.96682152290072
2334,459.44936479767097
2335,1067.0413403440202
2336,1678.2766338873828
2337,2311.3807116497237
2338,2961.6107458847564
2339,3556.90293222927
2340,4092.1806856346357
2341,4597.991796652339
2342,5054.136216456921
2343,5506.516257139128
2344,5956.678281970582
2345,6363.4770061971485
2346,6735.516428112177
2347,7117.853131868809
2348,7508.5521957717965
2349,7890.875910772707
2350,8275.042654741414
2351,8622.460359140312
2352,8930.196688156902
2353,9225.228415298465
2354,9498.295777127661
2355,9803.291373547221
2356,10147.91975017776
2357,10499.673680738546
2358,10874.304917345451
2359,11246.374572240591
2360,11613.476405911373
2361,12002.335352065249
2362,12407.912874848294
2363,12780.816567049029
2364,13120.480700455562
2365,13447.549344224686
2366,13749.726797253097
2367,14062.96119068569
2368,14389.70957357805
2369,14701.943705108784
2370,15007.70624391128
2371,15436.995916587233
2372,16000.02518260234
2373,16641.726079838394
2374,17399.12009645623
2375,18191.077486596467
2376,19015.372265988044
2377,19946.310840410533
2378,20969.199123450104
2379,22001.077862918675
2380,23045.78546379574
2381,24135.360762611534
2382,25251.325201697236
2383,26465.06206021994
2384,27782.550998284903
2385,29154.57484007535
2386,30598.667786811176
2387,32015.836242820435
2388,33392.349042763475
2389,34788.67450775463
2390,36176.22095975846
2391,37602.50278105842
2392,39072.44788665472
2393,40537.1735993384
2394,42006.482656039836
2395,43572.193145539415
2396,45235.85044889189
2397,46959.7727209249
2398,48767.190213600836
2399,50592.13329009806
2400,52430.55303466988
2401,54334.767595045756
2402,56290.40150449862
2403,58215.35787367469
2404,60107.48885280947
2405,61995.36564109639
2406,63856.99534566698
2407,65752.61647847161
2408,67683.80835391681
2409,69600.95058642353
2410,71515.73582107354
2411,73468.96150974049
2412,75457.63814361753
2413,77469.35645475399
2414,79513.12527676071
2415,81550.61078926644
2416,83579.38403106022
2417,85625.33268453306
2418,87679.38883587492
2419,89817.08594536332
2420,92048.18291150645
2421,94330.21742300299
2422,96685.17238705534
2423,99075.16903217009
2424,101497.37425159148
2425,103990.41793668992
2426,106547.03780761968
2427,109103.61961424572
2428,111660.1879860093
2429,114243.09064681128
2430,116836.86081385818
2431,119489.43433999296
2432,122204.32199035915
2433,124945.18809657074
2434,127723.0406987029
2435,130027.39086568903
2436,131801.93224725904
2437,133293.37322707174
2438,134352.18853301514
2439,135262.16771975765
2440,136033.91216370012
2441,136388.41574030143
2442,136375.79785791
2443,136375.7913950609
2444,136378.22832940216
2445,136225.5718584987
2446,136004.71730153394
2447,135407.56337368223
2448,134407.26212417794
2449,133222.87464435195
2450,131779.13918920676
2451,130411.91771636793
2452,129173.11994490623
2453,127845.69457739675
2454,126527.73233307597
2455,125068.89180430083
2456,123451.09635883411
2457,121835.67814517085
2458,120191.23964283895
2459,118183.17458975594
2460,115803.59454992799
2461,113192.37107330607
2462,110264.02218562849
2463,107253.63629340616
2464,104175.56223928607
2465,100840.62237044844
2466,97299.59343649673
2467,93950.89758806628
2468,90812.0558401826
2469,87730.85783911977
2470,84815.81611323898
2471,81790.22872957856
2472,78645.5777478939
2473,75616.81661035528
2474,72650.58290931654
2475,69526.15829956968
2476,66255.95750526154
2477,62913.70044793105
2478,59449.637617288136
2479,56061.348786009105
2480,52762.064220607936
2481,49415.383826094345
2482,46067.99255761375
2483,42381.13239704596
2484,38308.876700374094
2485,34046.11008682539
2486,29493.7449711133
2487,24817.22310186425
2488,20029.659116121922
2489,14959.53213158278
2490,9638.554282674018
2491,4360.58079141662
2492,-873.6036275248925
2493,-6186.822451244379
2494,-11507.316197468543
2495,-17054.364401333714
2496,-22844.055838180066
2497,-28709.181298932665
2498,-34699.96424422861
2499,-40010.94418289215
2500,-44541.65649973521
2501,-48705.36610294977
2502,-52263.50165845846
2503,-55638.5849692945
2504,-58849.43845768735
2505,-61465.821008549516
2506,-63561.824852907856
2507,-65778.37177018021
2508,-68103.77193810375
2509,-70266.04324568859
2510,-72413.86078724208
2511,-74040.4764562234
2512,-75101.6314752428
2513,-75963.31945843318
2514,-76502.54734767482
2515,-77209.92468186209
2516,-78166.5151035462
2517,-79045.89404822218
2518,-79992.76921161378
2519,-80798.04078409327
2520,-81434.80737367667
2521,-82135.10615142634
2522,-82855.43313796005
2523,-83088.06438604058
2524,-82819.8309522661
2525,-82265.99496190202
2526,-81296.66568913942
2527,-80265.33592952663
2528,-79194.13619252804
2529,-77797.51263131735
2530,-76151.95749333678
2531,-74942.83874952394
2532,-74205.18131505359
2533,-73669.89779430188
2534,-73525.19221632351
2535,-73305.58627814426
2536,-72996.57535122275
2537,-72999.06751946527
2538,-73224.03752660728
2539,-73279.17009754707
2540,-73185.19149218262
2541,-73077.5474681387
2542,-72867.76855577558
2543,-72902.98462914476
2544,-73207.44706052124
2545,-73540.92928249578
2546,-73985.91782896183
2547,-73977.68523909911
2548,-73438.82352076576
2549,-72698.13642105978
2550,-71590.57524348616
2551,-70390.01201490122
2552,-69119.25016549189
2553,-67493.80349281736
2554,-65566.68828574149
2555,-63834.55996316739
2556,-62299.96054360901
2557,-60755.516975107086
2558,-59323.20137078701
2559,-57634.89637308397
2560,-55664.175801594865
2561,-53693.5226179728
2562,-51639.20863139138
2563,-49905.39257392813
2564,-48564.00952809294
2565,-47365.41665807139
2566,-46434.55498052044
2567,-45605.91969625583
2568,-44866.95856141327
2569,-44415.87019428225
2570,-44225.18075064255
2571,-43899.162452667166
2572,-43436.47718494264
2573,-43016.24674933638
2574,-42543.786635976096
2575,-42310.78564420705
2576,-42343.49032185244
2577,-42422.510578276684
2578,-42617.76542428218
2579,-42754.97632080598
2580,-42795.698406283176
2581,-42875.20862320482
2582,-42939.794974712386
2583,-43044.206386249076
2584,-43199.65308778709
2585,-43331.11560983694
2586,-43450.164857418255
2587,-43775.37408649015
2588,-44315.2956835611
2589,-44972.52246050939
2590,-45803.799380943616
2591,-46664.10002702453
2592,-47543.907898742225
2593,-48563.62755169381
2594,-49692.12105037968
2595,-50484.31910659616
2596,-50910.01515188266
2597,-51156.86051108163
2598,-51100.56354082306
2599,-51027.11731050887
2600,-50946.36276120729
2601,-50603.61894909397
2602,-50052.8547622185
2603,-49570.762979146995
2604,-49145.55895238923
2605,-48675.52912881381
2606,-48223.64285150441
2607,-47552.80297584207
2608,-46645.42153915878
2609,-45667.628911790445
2610,-44562.82916894278
2611,-43669.15959927464
2612,-43034.97628889675
2613,-42457.74479210567
2614,-42036.520710796474
2615,-41611.5802679489
2616,-41168.34332181241
2617,-40875.00161632346
2618,-40700.26828427687
2619,-40336.41368511158
2620,-39780.46551308149
2621,-39161.47576738716
2622,-38403.20294278401
2623,-37730.6703165461
2624,-37159.64956792458
2625,-36515.602453170555
2626,-35849.22349262654
2627,-35255.50712628708
2628,-34724.87045760403
2629,-34249.15322454404
2630,-33851.05029616982
2631,-33434.742666729835
2632,-33000.57948687172
2633,-32616.285586851944
2634,-32263.17529154678
2635,-31937.68678959719
2636,-31647.825222819523
2637,-31383.525109371003
2638,-31146.456521052547
2639,-30959.397622410812
2640,-30823.18800060416
2641,-30729.167854506282
2642,-30683.396123697723
2643,-30558.808494680663
2644,-30343.38916991572
2645,-30102.377254988252
2646,-29800.242158120913
2647,-29509.393847051702
2648,-29234.783520425375
2649,-28908.971314903818
2650,-28546.53301056283
2651,-28241.20960640195
2652,-27992.258046601466
2653,-27763.938520452182
2654,-27579.13539489295
2655,-27365.00243172242
2656,-27117.025556344604
2657,-26890.187739271078
2658,-26668.176096046584
2659,-26474.183306431387
2660,-26316.52087208036
2661,-26172.625794625816
2662,-26050.67656750701
2663,-25950.593426119554
2664,-25871.08072126249
2665,-25819.88554577903
2666,-25797.420186722786
2667,-25767.7665573108
2668,-25729.577979941536
2669,-25700.958288939662
2670,-25672.938369537856
2671,-25668.829114408047
2672,-25690.93500706435
2673,-25720.424653338836
2674,-25762.805646375033
2675,-25826.65189013918
2676,-25910.806438012765
2677,-26015.32789702229
2678,-26142.222803398763
2679,-26282.518270589902
2680,-26436.39833324346
2681,-26610.136699544564
2682,-26802.057386224675
2683,-27014.255679440423
2684,-27247.76109942973
2685,-27500.598686661233
2686,-27773.663450647236
2687,-28067.80257726964
2688,-28383.106638964626
2689,-28720.115182627025
2690,-29079.214406694126
2691,-29217.685660247782
2692,-29110.92144989067
2693,-28872.901832314346
2694,-28433.202516821857
2695,-27931.16845864408
2696,-27371.843640165534
2697,-26621.209501883146
2698,-25704.227607073204
2699,-24794.866410817147
2700,-23887.877411625464
2701,-22912.53312414809
2702,-21908.54741505158
2703,-20733.154499749344
2704,-19374.212268303007
2705,-17932.81789504237
2706,-16374.19984286199
2707,-14862.987179385374
2708,-13424.117086501159
2709,-11952.922736241439
2710,-10497.470833468142
2711,-8983.011443482073
2712,-7401.027895948905
2713,-5831.225418471686
2714,-4258.176967825476
2715,-2521.0966474120287
2716,-616.6202890809445
2717,1388.0901320939686
2718,3533.8881753390874
2719,5706.91010134311
2720,7900.035883620525
2721,10204.263225428243
2722,12594.811550294085
2723,14897.288240999802
2724,17104.828384856675
2725,19282.13591052724
2726,21381.85750621299
2727,23526.90482624375
2728,25720.77109388158
2729,27859.81971406365
2730,29967.702919036983
2731,32137.82316220035
2732,34364.35036825724
2733,36616.69682466101
2734,38915.69839244497
2735,41176.35259230001
2736,43392.938132361254
2737,45623.55704835774
2738,47848.022070854575
2739,50217.68964671824
2740,52752.67377510351
2741,55366.30253094984
2742,58102.68882373762
2743,60887.12012586967
2744,63713.65857762349
2745,66659.10931048615
2746,69709.04617728906
2747,72733.11170516751
2748,75730.94907864048
2749,78756.71384151495
2750,81778.51723393917
2751,84893.69517098059
2752,88109.2663386216
2753,91350.91509463014
2754,94640.85376258918
2755,97558.51075281495
2756,100052.72425293647
2757,102336.27259255876
2758,104284.83051092067
2759,106121.85451938647
2760,107856.81950258897
2761,109263.84803224992
2762,110382.10723641075
2763,111541.05178820688
2764,112733.95529752382
2765,113821.5428560822
2766,114879.93370319672
2767,115646.97586025595
2768,116099.69012948115
2769,116426.58173289816
2770,116563.85413991014
2771,116772.0046073659
2772,117093.32429112392
2773,117355.4921967922
2774,117635.08727484349
2775,117819.60698095232
2776,117894.71554871355
2777,117984.01570567455
2778,118063.9930916777
2779,117867.23876403263
2780,117386.85712751921
2781,116735.70121881897
2782,115845.3015530231
2783,114902.04410773012
2784,113917.42811243117
2785,112740.8281454417
2786,111412.47404474892
2787,110282.62654609293
2788,109368.52598214278
2789,108533.32812403009
2790,107872.96130076572
2791,107148.16454327088
2792,106351.3974859011
2793,105687.87087844688
2794,105111.65052788975
2795,104423.51744242257
2796,103634.03100300125
2797,102811.3382173017
2798,101910.43511237891
2799,101107.8399927066
2800,100415.67191262166
2801,99711.65636304836
2802,99037.60410034473
2803,98102.69244076323
2804,96867.0633159009
2805,95499.41466252672
2806,93914.65750362816
2807,92253.89420075886
2808,90528.64559482281
2809,88592.18472283651
2810,86471.67780846264
2811,84421.89508099415
2812,82443.8927130032
2813,80431.11595153673
2814,78445.97200920506
2815,76299.15108390144
2816,73976.89501618358
2817,71624.07713302127
2818,69197.48749625278
2819,66945.48362676613
2820,64909.023481247124
2821,62940.528784328024
2822,61115.903854984725
2823,59326.500958355515
2824,57564.88117555768
2825,55955.301129326646
2826,54479.298414001285
2827,52904.08738177305
2828,51229.718388060784
2829,49560.00197703639
2830,47839.451787656566
2831,46241.84889788918
2832,44782.58076613132
2833,43331.74441256671
2834,41930.97883497918
2835,40462.66460982126
2836,38902.68254284081
2837,37338.118964001915
2838,35733.077284004874
2839,34128.247384612834
2840,32530.683261181322
2841,30888.159521592603
2842,29209.095500110194
2843,27632.88003327743
2844,26164.325411096997
2845,24741.86583779095
2846,23401.427538897256
2847,22049.051979761993
2848,20678.495444912918
2849,19366.890390690583
2850,18093.890297804464
2851,16600.57858744841
2852,14870.066903191184
2853,13009.838271209563
2854,10947.701090702178
2855,8851.586120724469
2856,6727.002902013999
2857,4425.087061335869
2858,1977.4813353889754
2859,-457.5810282923426
2860,-2887.304016304751
2861,-5369.440388208805
2862,-7868.166142979056
2863,-10520.175442372703
2864,-13335.651440954449
2865,-16219.313555750034
2866,-19203.889191891933
2867,-22089.76602495207
2868,-24848.78296977026
2869,-27600.07809839542
2870,-30285.320483976553
2871,-32999.559474275076
2872,-35751.46145532538
2873,-38441.55996963583
2874,-41088.56000494819
2875,-43873.180165182945
2876,-46797.1650508721
2877,-49785.026871718306
2878,-52881.58510874364
2879,-55954.61714474579
2880,-58994.96329096379
2881,-62105.25231630893
2882,-65255.76600562926
2883,-68081.6555366216
2884,-70556.80738594288
2885,-72830.56730245236
2886,-74799.62122667927
2887,-76697.20496709851
2888,-78529.12783708339
2889,-80084.6716912369
2890,-81406.18534153343
2891,-82717.46329881274
2892,-84006.80516605981
2893,-85189.39275505758
2894,-86314.59758158059
2895,-87186.55692757526
2896,-87788.91886510118
2897,-88255.42522719814
2898,-88537.80170371938
2899,-88922.61919294402
2900,-89448.63631446483
2901,-89942.59215879903
2902,-90486.98802651542
2903,-90942.28509176227
2904,-91294.3160505722
2905,-91685.28066285921
2906,-92086.35725458423
2907,-92235.34610571308
2908,-92128.08947330453
2909,-91871.59707224352
2910,-91399.57771973051
2911,-90901.09277807084
2912,-90387.64472955248
2913,-89709.53242116357
2914,-88907.93395983044
2915,-88201.41605057627
2916,-87594.46401746196
2917,-87012.99915234861
2918,-86515.20816920526
2919,-85938.04487108155
2920,-85277.32227895205
2921,-84666.02660982448
2922,-84072.36210888691
2923,-83391.1207892432
2924,-82630.48061185435
2925,-81821.25359444944
2926,-80940.27720619757
2927,-80087.72952373455
2928,-79269.7378825795
2929,-78418.92464825684
2930,-77558.90722009799
2931,-76483.9362740437
2932,-75167.6700762058
2933,-73724.88824243701
2934,-72095.70692508986
2935,-70383.8356264141
2936,-68596.80657028651
2937,-66629.06301560836
2938,-64500.395995884144
2939,-62382.52070274417
2940,-60275.112479804
2941,-58107.06296579526
2942,-55919.98463871228
2943,-53583.939322983984
2944,-51089.3076861606
2945,-48534.22253821199
2946,-45888.734539577265
2947,-43604.14234508183
2948,-41736.924567317496
2949,-40053.97776170847
2950,-38688.837713922825
2951,-37405.43765629149
2952,-36192.796371055774
2953,-35291.326417807104
2954,-34659.3812188873
2955,-33935.872278276795
2956,-33126.86699284884
2957,-32385.358343347194
2958,-31627.268476320354
2959,-31137.030529025287
2960,-30939.198907290625
2961,-30827.583134591183
2962,-30870.946778971644
2963,-30797.10557842576
2964,-30560.505863540744
2965,-30342.405554123307
2966,-30062.232399305478
2967,-29834.875110665307
2968,-29674.996391207445
2969,-29453.970429876303
2970,-29195.46720561434
2971,-29181.793338506046
2972,-29420.071499917296
2973,-29790.01872265152
2974,-30363.658691356744
2975,-30944.16840431845
2976,-31518.926011665037
2977,-32246.486745340786
2978,-33084.030178053385
2979,-33649.972896850406
2980,-33924.54751898314
2981,-34057.188499968535
2982,-33942.90962857814
2983,-33840.373682860016
2984,-33757.37035484375
2985,-33470.58871562526
2986,-33029.27219088833
2987,-32651.346178424363
2988,-32324.9942472261
2989,-31974.604251043613
2990,-31649.098604077786
2991,-31155.108927583547
2992,-30478.863026911447
2993,-29753.69570691428
2994,-28933.44165912418
2995,-28331.73280261127
2996,-27991.320421994744
2997,-27729.124703688474
2998,-27636.607424287886
2999,-27561.26432630518
3000,-27490.131158194225
3001,-27581.0513971279
3002,-27804.27206719521
3003,-27883.402593733324
3004,-27816.7404822729
3005,-27719.287680139518
3006,-27522.949250252423
3007,-27432.077522729065
3008,-27461.07680591403
3009,-27452.62331642653
3010,-27452.975303334264
3011,-27404.409993103716
3012,-27283.864737616805
3013,-27151.663008944786
3014,-26986.78365862631
3015,-26785.265946032327
3016,-26550.587184566455
3017,-26264.79166179663
3018,-25925.93550092719
3019,-25633.851408234303
3020,-25392.825807377216
3021,-25152.109207261903
3022,-24936.859736430994
3023,-24683.382200893135
3024,-24385.41886515402
3025,-24095.100311113205
3026,-23797.499202094834
3027,-23474.74669681433
3028,-23130.837021997784
3029,-22763.25280585821
3030,-22368.309894817412
3031,-21967.726515522456
3032,-21561.113982375773
3033,-21134.513643192582
3034,-20692.194637463414
3035,-20224.352449047914
3036,-19728.476147610145
3037,-19211.983328272774
3038,-18671.64933442041
3039,-18108.809433517767
3040,-17523.728817423664
3041,-16912.67907895336
3042,-16275.654217660742
3043,-15734.720880063274
3044,-15301.405648020951
3045,-14918.173624810799
3046,-14619.944805585337
3047,-14335.418343912757
3048,-14061.549301766121
3049,-13865.553246540952
3050,-13734.201796493066
3051,-13581.429589137399
3052,-13409.562931018343
3053,-13252.614963484226
3054,-13090.643374707131
3055,-12993.892650871208
3056,-12967.875107821152
3057,-12962.231606025573
3058,-12993.725228455743
3059,-12982.350647952786
3060,-12915.549308134428
3061,-12843.787541116873
3062,-12743.408135253274
3063,-12649.883012977916
3064,-12566.960857239588
3065,-12455.828438884251
3066,-12323.498643823048
3067,-12247.589214898228
3068,-12229.365332575047
3069,-12235.795020947813
3070,-12286.312468497903
3071,-12325.35737990279
3072,-12349.07976206545
3073,-12401.204879404042
3074,-12469.333890879247
3075,-12295.294721796754
3076,-11857.540000333214
3077,-11268.02306549889
3078,-10452.929864982112
3079,-9570.564644657505
3080,-8625.561396443578
3081,-7471.462427627193
3082,-6136.88170739524
3083,-4790.86174956819
3084,-3426.2191405871085
3085,-1976.8699387420538
3086,-480.68755812128194
3087,1206.1997776410938
3088,3095.8830895281876
3089,5088.556226572075
3090,7219.489627202463
3091,9297.20131528918
3092,11294.63472496513
3093,13329.748306016376
3094,15347.119111788938
3095,17437.63701834222
3096,19610.91843432658
3097,21772.79731389323
3098,23942.032109504475
3099,26298.156392113866
3100,28844.35499227528
3101,31506.6766756684
3102,34330.59027260937
3103,37187.5113540824
3104,40069.52267719838
3105,43078.77772336829
3106,46187.26920173883
3107,49228.72454838515
3108,52198.36950842134
3109,55154.85111474189
3110,58053.5161389215
3111,61015.423799418306
3112,64043.81237726074
3113,67038.52983672313
3114,70023.04583865564
3115,73081.26565075063
3116,76207.2440237224
3117,79375.06568858841
3118,82603.3071654967
3119,85813.67242499079
3120,89001.14832593269
3121,92218.76083987071
3122,95447.98290051015
3123,98840.00140739768
3124,102414.46732041411
3125,106086.10045631445
3126,109898.92166362902
3127,113777.36101232383
3128,117715.70929497485
3129,121791.1763116942
3130,125989.26303833815
3131,130182.10778686815
3132,134369.6931953543
3133,138605.0247269678
3134,142856.9861468082
3135,147221.7743399954
3136,151706.42409342315
3137,156237.93489080336
3138,160838.3793766154
3139,164756.51984253892
3140,167907.4488008044
3141,170658.5268195786
3142,172789.25762221988
3143,174712.79217186716
3144,176445.12579180542
3145,177577.4673178404
3146,178182.7051960877
3147,178827.0595687811
3148,179496.3566195154
3149,179954.64076043112
3150,180331.851874336
3151,180170.9665776687
3152,179432.15868161496
3153,178441.41371330718
3154,177087.24624470645
3155,175856.70964289535
3156,174826.03690084396
3157,173678.79694915246
3158,172557.50205873192
3159,171246.0517273669
3160,169718.15516612233
3161,168207.1190414293
3162,166667.85195972843
3163,164611.7341636047
3164,162027.04225779016
3165,159118.59150813776
3166,155761.53052379497
3167,152298.59398469576
3168,148750.8128420526
3169,144842.2104982576
3170,140646.84951248084
3171,136760.32906826193
3172,133209.68640826136
3173,129766.16122552157
3174,126592.23979719914
3175,123276.098531829
3176,119805.04168738113
3177,116529.7467045745
3178,113370.92944004825
3179,109996.51206213562
3180,106424.95852538911
3181,102767.95123949413
3182,98950.6433481474
3183,95269.63331031639
3184,91744.96537001633
3185,88171.80390776547
3186,84620.31951876859
3187,80587.24101125178
3188,76004.20395726112
3189,71161.42830667249
3190,65911.7381367099
3191,60500.60732349194
3192,54947.69383108161
3193,48998.434857728076
3194,42699.982571288914
3195,36490.084099445885
3196,30370.129308527044
3197,24157.206612552927
3198,17958.34147405083
3199,11447.329518581568
3200,4600.348364981015
3201,-2333.531302894943
3202,-9428.91290627887
3203,-15730.8584691485
3204,-21114.796461577433
3205,-26081.605876120284
3206,-30347.142511080237
3207,-34400.50643910094
3208,-38264.86883160592
3209,-41434.707012467305
3210,-43995.43912839393
3211,-46725.99645175909
3212,-49614.42006631104
3213,-52327.37803005904
3214,-55046.3422839666
3215,-57160.97604088516
3216,-58617.82765955999
3217,-59860.037239407735
3218,-60739.737175454524
3219,-61820.1476003693
3220,-63196.854178612084
3221,-64490.24738980453
3222,-65867.08304660721
3223,-67092.41132338438
3224,-68134.98192811906
3225,-69259.29857280363
3226,-70416.47598613091
3227,-71013.94335713274
3228,-71035.64365927968
3229,-70734.10689038159
3230,-69957.56413141868
3231,-69116.83666144228
3232,-68237.80760139057
3233,-66987.87635598729
3234,-65455.92055711017
3235,-64480.137891973114
3236,-64105.31298950789
3237,-63999.1424070687
3238,-64392.36398534185
3239,-64719.93771976133
3240,-64964.07134621886
3241,-65613.65067542717
3242,-66560.83714354479
3243,-67320.33973385971
3244,-67917.13195972065
3245,-68520.40476130063
3246,-69020.6174596384
3247,-69845.30130308049
3248,-71024.63473407643
3249,-72262.31893116783
3250,-73660.05146899361
3251,-74534.56922912973
3252,-74791.75103494807
3253,-74830.94247567924
3254,-74452.43030083031
3255,-73986.56550231305
3256,-73461.2294229139
3257,-72532.79632984955
3258,-71265.35236757265
3259,-70262.53718273152
3260,-69527.84936538442
3261,-68809.17797505784
3262,-68254.97923062618
3263,-67418.71319351124
3264,-66268.47078089406
3265,-65147.482757791535
3266,-63954.3489885555
3267,-63001.54732893303
3268,-62358.29896705383
3269,-61805.1689833753
3270,-61442.10893437331
3271,-61170.49007489214
3272,-60978.74709277272
3273,-61009.063351084864
3274,-61246.38711278266
3275,-61338.26437250303
3276,-61279.21591745896
3277,-61234.61998491186
3278,-61118.73551480881
3279,-61180.67499041893
3280,-61443.35446388967
3281,-61714.77740346117
3282,-62054.24170683199
3283,-62371.998476609435
3284,-62639.78318150493
3285,-62944.47772950377
3286,-63256.436823002354
3287,-63586.701949275215
3288,-63942.59259377716
3289,-64292.06509712052
3290,-64637.73175198639
3291,-65126.12089981028
3292,-65765.14570334292
3293,-66486.16569612437
3294,-67327.88461488817
3295,-68198.4268830471
3296,-69091.50382297722
3297,-70086.02719196783
3298,-71162.52049935731
3299,-71912.36994353468
3300,-72304.2722610911
3301,-72516.9125520137
3302,-72435.22155949367
3303,-72313.94978846393
3304,-72162.41458242103
3305,-71749.58880123064
3306,-71123.23076470286
3307,-70548.20303614116
3308,-70014.57755002554
3309,-69422.31251882525
3310,-68832.00138542015
3311,-68020.29800513644
3312,-66970.22949873228
3313,-65839.37178839752
3314,-64574.35033103472
3315,-63471.842534185445
3316,-62575.40097412904
3317,-61704.45630529209
3318,-60946.09435576549
3319,-60162.537542784616
3320,-59340.58334241934
3321,-58626.70498398509
3322,-57993.776245933856
3323,-57166.47346709733
3324,-56141.49910453093
3325,-55034.71035735605
3326,-53777.610963472456
3327,-52570.09499596687
3328,-51426.04570637612
3329,-50189.587567833376
3330,-48905.56067297773
3331,-47783.29950719888
3332,-46826.80380973247
3333,-45970.06317132639
3334,-45269.39448335164
3335,-44567.65577816302
3336,-43862.44410684034
3337,-43282.89625628405
3338,-42799.409249717784
3339,-42319.2166758051
3340,-41852.02913308746
3341,-41425.13639483374
3342,-41019.48115331402
3343,-40728.66038598273
3344,-40559.54705277588
3345,-40452.311914194564
3346,-40430.11588415364
3347,-40294.981647937035
3348,-40023.26050822844
3349,-39726.778116467474
3350,-39349.04337672035
3351,-38992.88298508661
3352,-38666.96789251761
3353,-38270.11066831664
3354,-37823.10977113566
3355,-37492.04251132662
3356,-37277.857486629364
3357,-37114.056338805225
3358,-37041.915827691475
3359,-36937.86451383132
3360,-36794.099692294585
3361,-36706.28076332833
3362,-36647.01180361653
3363,-36547.14753997955
3364,-36410.442006967154
3365,-36249.951458912874
3366,-36048.489101277446
3367,-35869.07507787839
3368,-35712.231989350454
3369,-35531.44342555088
3370,-35339.120833293775
3371,-35151.182224552496
3372,-34963.30995611278
3373,-34775.78132665384
3374,-34591.20206250732
3375,-34386.50373781595
3376,-34160.677252443784
3377,-33926.70784254156
3378,-33679.00031363393
3379,-33502.91207324873
3380,-33407.6369595462
3381,-33348.53409593879
3382,-33349.95754970764
3383,-33365.37133946224
3384,-33391.766016435955
3385,-33474.10985037667
3386,-33603.371094434246
3387,-33714.25674479807
3388,-33807.38074461618
3389,-33908.71500512001
3390,-34002.53748429223
3391,-34139.54083386156
3392,-34323.29560217646
3393,-34515.943913274736
3394,-34729.133409679096
3395,-34758.168225453606
3396,-34578.15794366406
3397,-34293.409498238216
3398,-33843.53393979026
3399,-33337.05952855752
3400,-32778.85312190052
3401,-32059.330604751292
3402,-31197.677882030068
3403,-30354.80737519577
3404,-29527.684124166768
3405,-28648.495561824046
3406,-27754.58707515511
3407,-26718.423428153274
3408,-25528.999535786377
3409,-24278.416284877476
3410,-22935.79142435709
3411,-21625.61400932445
3412,-20368.43446513263
3413,-19081.731153803164
3414,-17802.258489014082
3415,-16476.927439443723
3416,-15099.014299481867
3417,-13727.491908398482
3418,-12351.382411109415
3419,-10842.451295622599
3420,-9197.484635253433
3421,-7470.9266872905855
3422,-5630.043516982011
3423,-3764.3273781474704
3424,-1879.4571906603721
3425,96.67351233691988
3426,2144.6299981769307
3427,4099.535772833995
3428,5953.317194787482
3429,7769.94225472088
3430,9504.209934109611
3431,11268.85849782962
3432,13067.299325361984
3433,14802.775597723752
3434,16496.843989253386
3435,18242.529122750067
3436,20034.694498623943
3437,21841.49042128433
3438,23683.815956764276
3439,25478.81941733154
3440,27220.714564372967
3441,28966.622630015467
3442,30696.825058837847
3443,32548.26771707924
3444,34539.570290588636
3445,36591.18093657221
3446,38743.069189184745
3447,40928.52505579355
3448,43142.00140678828
3449,45452.559404791784
3450,47847.25465019696
3451,50206.05956300516
3452,52528.36965556168
3453,54864.187401883304
3454,57184.0234324274
3455,59576.888724936434
3456,62049.13621181692
3457,64532.447593453144
3458,67047.04607483218
3459,69384.86812322751
3460,71517.14427828847
3461,73555.77605506162
3462,75438.39293258861
3463,77268.09827883256
3464,79050.02403502549
3465,80675.20387757693
3466,82161.4243756653
3467,83683.38710785785
3468,85238.86399503106
3469,86752.13823525532
3470,88264.00854722504
3471,89638.80648266962
3472,90864.47745964047
3473,92039.90211638928
3474,93132.17306169691
3475,94258.80955441389
3476,95440.34464374829
3477,96595.96122847922
3478,97760.5294371301
3479,98886.2499001242
3480,99966.34643920836
3481,101055.40722718522
3482,102143.3714800804
3483,103103.57245633447
3484,103932.24729307706
3485,104683.5276343071
3486,105324.8166051976
3487,105943.20408604217
3488,106544.08687388504
3489,107056.49117541601
3490,107499.13928049953
3491,108061.74888785409
3492,108754.84925541538
3493,109502.15560558888
3494,110355.9427248567
3495,111189.22599085016
3496,111997.81722846288
3497,112891.92664986232
3498,113847.2652628585
3499,114752.27212360175
3500,115612.35854123742
3501,116466.66663117503
3502,117289.87519078869
3503,118179.4958314121
3504,119142.36155101378
3505,120110.5324263506
3506,121107.12257167572
3507,121979.20954263672
3508,122705.47672064496
3509,123375.49145935442
3510,123944.44799068222
3511,124485.79463355654
3512,125005.70148952682
3513,125427.34616760569
3514,125764.89871384687
3515,126153.93831162441
3516,126595.21902972278
3517,127031.89367226679
3518,127497.25464854685
3519,127890.99516113268
3520,128205.8539058278
3521,128518.83179055661
3522,128807.08505299578
3523,128884.84367147413
3524,128741.24037383615
3525,128446.5135575946
3526,127948.4919574493
3527,127371.32205707562
3528,126717.24595742533
3529,125876.58593738487
3530,124871.78388484215
3531,123806.96729206464
3532,122674.96621870791
3533,121437.71811917053
3534,120117.48051215168
3535,118619.06950338122
3536,116934.36654659544
3537,115126.55351867588
3538,113171.80590492096
3539,111224.872355677
3540,109305.45741123689
3541,107321.42193205275
3542,105316.86754930766
3543,103214.04058226966
3544,101005.13003240286
3545,98767.50549022682
3546,96484.87631807661
3547,94018.84224697472
3548,91367.22752316046
3549,88585.55036331243
3550,85638.68120438232
3551,82626.68474177683
3552,79555.31108119345
3553,76345.12561535856
3554,73017.70724009849
3555,69672.06150052206
3556,66308.65073628351
3557,62895.724191740504
3558,59459.06439866335
3559,55921.50419244086
3560,52280.91297551721
3561,48598.38294750897
3562,44858.50971022595
3563,41016.928097239426
3564,37077.33863769422
3565,33051.09390051414
3566,28928.309477910232
3567,24752.212556246617
3568,20524.972463477126
3569,16217.400574723168
3570,11839.410420234632
3571,7292.285678712652
3572,2563.424853558886
3573,-2293.4218963180015
3574,-7307.166182897435
3575,-12427.86521047418
3576,-17652.3576340826
3577,-23031.758097843747
3578,-28556.834112922526
3579,-34147.30353735766
3580,-39803.84148814278
3581,-45560.03153019281
3582,-51396.752773314955
3583,-57375.76996896396
3584,-63501.994532925935
3585,-69729.59844302926
3586,-76073.12568717478
3587,-81698.72428458072
3588,-86516.2199033929
3589,-90926.42174527941
3590,-94685.7335231345
3591,-98261.41879895676
3592,-101671.01603005792
3593,-104457.81664444096
3594,-106704.78570004241
3595,-109027.95317727413
3596,-111410.63815409454
3597,-113598.65321266456
3598,-115733.07863343459
3599,-117313.33208571956
3600,-118296.22388176556
3601,-119037.77238109209
3602,-119415.94908450333
3603,-119984.56321706521
3604,-120828.98254941603
3605,-121593.14184229521
3606,-122438.93938048817
3607,-123117.90905444193
3608,-123600.77860265899
3609,-124154.22735916381
3610,-124726.7041820099
3611,-124769.58992564562
3612,-124270.53290363887
3613,-123459.15566002036
3614,-122195.66081502737
3615,-120866.64520348301
3616,-119496.0657637647
3617,-117773.76977133504
3618,-115783.59691726264
3619,-114169.51919240537
3620,-112959.66929071497
3621,-111909.57300685676
3622,-111194.75364548728
3623,-110367.41497049696
3624,-109414.23291146063
3625,-108715.5610140073
3626,-108185.31229221648
3627,-107469.05362510937
3628,-106587.37024988349
3629,-105658.68647772155
3630,-104603.47039027995
3631,-103740.37377519143
3632,-103091.02908287967
3633,-102436.29428346553
3634,-101851.74883620226
3635,-100788.45432986332
3636,-99172.487336489
3637,-97319.86770381079
3638,-95070.33305113424
3639,-92692.88897560419
3640,-90209.13918896555
3641,-87341.18536608783
3642,-84140.89164854582
3643,-81084.424483064
3644,-78173.35408369191
3645,-75209.27114015962
3646,-72308.71118518298
3647,-69116.82792605173
3648,-65607.932268579
3649,-62053.18274566936
3650,-58371.58148581254
3651,-55203.65418617045
3652,-52644.07746084985
3653,-50334.39089937254
3654,-48467.78718828685
3655,-46740.38541766409
3656,-45134.813425812994
3657,-43980.73461235824
3658,-43225.75054524404
3659,-42308.39443772847
3660,-41232.73820427341
3661,-40244.51014642482
3662,-39211.29183150344
3663,-38561.87324685173
3664,-38334.039735752944
3665,-38211.66067036885
3666,-38298.03176818624
3667,-38253.80040491848
3668,-38015.93852292481
3669,-37823.50654148763
3670,-37574.647629472405
3671,-37399.951995119394
3672,-37318.982608434766
3673,-37176.35771803157
3674,-36999.216931852476
3675,-37165.20457587957
3676,-37685.94948908475
3677,-38397.72264814764
3678,-39397.57006276981
3679,-40427.25862043724
3680,-41470.126930864404
3681,-42736.70440280465
3682,-44171.12753994702
3683,-45161.2119428775
3684,-45670.42040850418
3685,-45947.642202348776
3686,-45823.22591092874
3687,-45701.54127590013
3688,-45595.644202889984
3689,-45151.22292574813
3690,-44444.97075771467
3691,-43841.904922331174
3692,-43324.470613347745
3693,-42762.19262990381
3694,-42237.63005190907
3695,-41432.709620537345
3696,-40324.34121254891
3697,-39133.72213151402
3698,-37784.954774944694
3699,-36762.4889266417
3700,-36133.938591821796
3701,-35613.07945860961
3702,-35341.52345674511
3703,-35086.965274137976
3704,-34829.016275557566
3705,-34810.16130950586
3706,-34985.02921900018
3707,-34920.15193765321
3708,-34612.17149802983
3709,-34242.19773733758
3710,-33703.18047424233
3711,-33313.98655045032
3712,-33097.07263845037
3713,-32806.1487134367
3714,-32513.26446276097
3715,-32221.997170143968
3716,-31905.69803370451
3717,-31614.4581895167
3718,-31342.553465097284
3719,-31029.79825876822
3720,-30679.569402498335
3721,-30315.52467031701
3722,-29924.865566762182
3723,-29596.415099641228
3724,-29338.81345934246
3725,-29099.90519753503
3726,-28903.59669616171
3727,-28705.33971647751
3728,-28499.93900684463
3729,-28329.764821458524
3730,-28184.808796650683
3731,-27973.952775244
3732,-27693.765580015977
3733,-27380.403150046695
3734,-27009.5896746093
3735,-26643.768169578947
3736,-26285.51311099998
3737,-25882.395994722232
3738,-25446.90186344755
3739,-25025.335495198906
3740,-24614.983628052316
3741,-24201.55799499288
3742,-23795.61412617565
3743,-23355.466241649843
3744,-22878.707695820067
3745,-22394.344133175444
3746,-21892.771438049225
3747,-21499.490216747807
3748,-21229.973095747402
3749,-21018.23364028714
3750,-20901.094995504827
3751,-20813.209526082872
3752,-20751.039368231854
3753,-20780.738150640256
3754,-20890.445875249676
3755,-20980.161120803605
3756,-21051.23537048613
3757,-21145.51443874747
3758,-21239.45686870897
3759,-21411.167922766585
3760,-21667.070394000762
3761,-21949.94505178541
3762,-22278.409372368747
3763,-22584.211591915082
3764,-22855.17659875747
3765,-23137.59831614908
3766,-23410.99369541893
3767,-23702.599779858356
3768,-24015.974249338597
3769,-24319.257687707817
3770,-24617.90400120515
3771,-24984.288016857172
3772,-25420.189512098117
3773,-25894.190246468406
3774,-26424.640418757303
3775,-26961.13895642082
3776,-27500.225382003864
3777,-28082.300364433522
3778,-28696.243523783036
3779,-28998.682688418165
3780,-28959.114448451655
3781,-28730.378421482408
3782,-28213.901239306906
3783,-27616.15141819929
3784,-26943.665764508056
3785,-26003.312493199912
3786,-24832.36906436298
3787,-23662.30728651762
3788,-22484.295218472707
3789,-21206.749357986322
3790,-19881.902838825983
3791,-18315.189138508005
3792,-16490.254509364073
3793,-14543.083717323596
3794,-12426.127805544398
3795,-10387.088484523518
3796,-8461.766790557476
3797,-6496.21090610164
3798,-4562.344245712883
3799,-2544.202272524659
3800,-429.2959992751801
3801,1661.095336102594
3802,3750.8580340667995
3803,6074.987941205749
3804,8637.82378827772
3805,11342.067662804937
3806,14247.249502085664
3807,17185.538091397644
3808,20146.49481040873
3809,23263.58643739312
3810,26500.219629561663
3811,29628.33783543562
3812,32640.58514253439
3813,35618.62254096041
3814,38500.953344422334
3815,41451.87197112303
3816,44475.802662915914
3817,47435.930125679806
3818,50363.989461340316
3819,53377.15680048273
3820,56467.38744507843
3821,59597.71302050518
3822,62794.09547093466
3823,65947.9551038909
3824,69052.17421333509
3825,72180.40961328556
3826,75306.89553068246
3827,78635.90292091413
3828,82194.1132899008
3829,85865.68512084291
3830,89710.07288565881
3831,93625.47343308749
3832,97604.02339197042
3833,101749.8133215472
3834,106043.22783678173
3835,110310.44797507534
3836,114551.25518463663
3837,118837.67366189105
3838,123127.29286435826
3839,127550.48500494263
3840,132116.69104946617
3841,136726.69249554185
3842,141410.31034104564
3843,145503.2103991096
3844,148926.59979857737
3845,152012.8230183907
3846,154566.02021473684
3847,156943.48381150156
3848,159159.96151528857
3849,160857.08569955418
3850,162097.6752297807
3851,163395.40822077234
3852,164739.0578968741
3853,165912.5926332895
3854,167034.47029953965
3855,167694.08131152648
3856,167855.55727768718
3857,167813.4468279355
3858,167467.78777471246
3859,167236.43381626156
3860,167186.42381270934
3861,167043.1345508709
3862,166929.2411999008
3863,166662.65483631167
3864,166220.58579617104
3865,165801.9785459238
3866,165368.8372936987
3867,164495.70326570774
3868,163171.91554092403
3869,161576.68750328038
3870,159601.19641123505
3871,157542.71869521667
3872,155419.60940684218
3873,152992.01804229646
3874,150324.17509718266
3875,147959.2192116113
3876,145923.19901971775
3877,144005.23660878977
3878,142353.91527167655
3879,140596.71114315966
3880,138722.0190757555
3881,137048.62243895463
3882,135504.96947464056
3883,133784.36111828478
3884,131903.3800042406
3885,129966.38824145761
3886,127904.19291511054
3887,125989.39083056017
3888,124240.63872645558
3889,122469.38633085672
3890,120740.21114096975
3891,118599.48571296051
3892,115985.2736442286
3893,113160.24165001596
3894,109991.72330341715
3895,106700.29174883736
3896,103303.87764530044
3897,99573.43226612538
3898,95551.42576212251
3899,91634.34121184512
3900,87823.73405193437
3901,83953.90089872597
3902,80121.93325651987
3903,76033.00598769925
3904,71665.69952712748
3905,67245.53878589261
3906,62705.21944744712
3907,58595.34325705818
3908,54996.526132611216
3909,51602.34153568837
3910,48578.703862445785
3911,45662.644567212636
3912,42839.405908828696
3913,40393.10605280131
3914,38278.38036531283
3915,36015.31668103304
3916,33607.72716207572
3917,31265.33473511694
3918,28875.085563426306
3919,26804.287386452535
3920,25085.321422561443
3921,23447.768469517476
3922,21980.17776643355
3923,20387.38732879095
3924,18615.09153121864
3925,16870.29117308986
3926,15064.531709019497
3927,13312.442823580432
3928,11630.98937307731
3929,9884.658671687073
3930,8097.289511668705
3931,6595.508669946888
3932,5389.269546734706
3933,4337.229588304653
3934,3523.3092469857797
3935,2723.877527108458
3936,1924.5563525570724
3937,1307.5671448779635
3938,824.5451375607838
3939,-49.53143653701892
3940,-1345.7932509747448
3941,-2851.0892432163255
3942,-4710.851308689335
3943,-6577.833612227531
3944,-8440.831186258125
3945,-10603.849865620228
3946,-13000.996528725775
3947,-15319.715089881562
3948,-17575.08244916852
3949,-19878.649899191227
3950,-22159.721772981302
3951,-24690.80186349936
3952,-27491.62926110918
3953,-30372.71183798975
3954,-33399.05220697482
3955,-36154.29163386672
3956,-38580.357673141865
3957,-40923.05229100787
3958,-43060.65909201839
3959,-45192.92218561411
3960,-47337.316640974015
3961,-49285.36797234934
3962,-51076.06048402087
3963,-53081.61168650067
3964,-55304.846193656456
3965,-57590.231578234496
3966,-60029.657555590435
3967,-62349.19408160467
3968,-64529.519332600794
3969,-66782.1262519121
3970,-69045.08931332249
3971,-71143.15028033261
3972,-73081.43615155191
3973,-74897.34285378233
3974,-76545.59392317163
3975,-78176.32906468894
3976,-79789.91392531323
3977,-81270.76008980034
3978,-82647.2452259101
3979,-83966.44159706759
3980,-85216.94619606007
3981,-86392.95127109661
3982,-87501.87573872236
3983,-88480.28810770102
3984,-89323.73555194376
3985,-90067.37842821122
3986,-90694.83005392647
3987,-91402.19738884324
3988,-92209.98607609865
3989,-93011.95688914825
3990,-93863.16989587115
3991,-94655.93834350159
3992,-95381.6985924043
3993,-96142.47513339049
3994,-96916.18665325068
3995,-97547.6963529135
3996,-98036.69003223476
3997,-98443.22738477014
3998,-98728.7431050537
3999,-99010.356698778
4000,-99294.97481656699
4001,-99492.25967412129
4002,-99627.95734796792
4003,-99723.20770383392
4004,-99769.82722483824
4005,-99775.89613226209
4006,-99744.69783729926
4007,-99641.62247527885
4008,-99466.87220099736
4009,-99239.97255629444
4010,-98953.48345136146
4011,-98623.0616539986
4012,-98251.56622075626
4013,-97825.97563396834
4014,-97350.63334846443
4015,-96821.62101844484
4016,-96237.48845364776
4017,-95603.72522763837
4018,-94919.16907986022
4019,-94130.79442193195
4020,-93233.95478469525
4021,-92252.60903431042
4022,-91171.63363184861
4023,-90022.26661747093
4024,-88805.61028092568
4025,-87492.31663245554
4026,-86088.06745278325
4027,-84626.72465566259
4028,-83106.82588968573
4029,-81515.10750821406
4030,-79859.13783891781
4031,-78110.18014720488
4032,-76265.80214113403
4033,-74345.92884569074
4034,-72343.504680949
4035,-70618.67999488775
4036,-69209.98334306122
4037,-67943.37860125896
4038,-66923.70848779324
4039,-65948.63452436359
4040,-65010.03917952024
4041,-64304.79532645804
4042,-63796.55687994653
4043,-63218.703159382756
4044,-62577.95691665024
4045,-61983.62206579032
4046,-61374.261830364885
4047,-60965.62920505041
4048,-60775.88727637159
4049,-60650.74912999102
4050,-60642.43620619415
4051,-60513.31909063768
4052,-60226.24354287957
4053,-59933.54928054869
4054,-59565.41776149607
4055,-59227.48719636658
4056,-58931.86932536244
4057,-58564.03209115417
4058,-58145.53899367558
4059,-57911.38372498676
4060,-57866.45684366243
4061,-57911.689958553405
4062,-58106.63804065631
4063,-58285.046065683324
4064,-58436.18027849187
4065,-58692.653821466134
4066,-59018.06080476101
4067,-59140.788283624424
4068,-59048.8507098162
4069,-58844.3061169793
4070,-58452.89768245833
4071,-58063.36653716223
4072,-57680.88894217929
4073,-57144.67355207908
4074,-56490.69257073113
4075,-55866.87443070907
4076,-55264.06003870152
4077,-54632.51245837123
4078,-54005.07193864475
4079,-53247.62118515911
4080,-52350.700942494
4081,-51405.74557971365
4082,-50380.630823844425
4083,-49506.80637602451
4084,-48815.00790693554
4085,-48171.499412410085
4086,-47643.543227608374
4087,-47116.95220081479
4088,-46582.204214352205
4089,-46156.3253068391
4090,-45816.9680581514
4091,-45362.91404215316
4092,-44793.12141486515
4093,-44190.8122420481
4094,-43506.44136950743
4095,-42889.31689091392
4096,-42349.86553336628
4097,-41773.30206062684
4098,-41193.39515569586
4099,-40611.61328842685
4100,-40015.622350616446
4101,-39429.06916734895
4102,-38849.31880705652
4103,-38248.50250844911
4104,-37628.32004184994
4105,-36999.80842322684
4106,-36357.12818799985
4107,-35741.699305179834
4108,-35157.63142565309
4109,-34580.774244188455
4110,-34022.345240735434
4111,-33461.71645422809
4112,-32896.57151445726
4113,-32346.71860992694
4114,-31807.600530016152
4115,-31235.67350200717
4116,-30629.3106804607
4117,-30006.01691715342
4118,-29354.23225651798
4119,-28703.822105232273
4120,-28056.106927354544
4121,-27386.10137255927
4122,-26699.839284845966
4123,-26019.86341116831
4124,-25344.981878302147
4125,-24668.276328738535
4126,-23994.96098647455
4127,-23304.999295526744
4128,-22597.305652876235
4129,-21885.99603980829
4130,-21166.519163479566
4131,-20492.96457595905
4132,-19872.216961204325
4133,-19275.584740348186
4134,-18719.016703179805
4135,-18174.823108814067
4136,-17641.51188490753
4137,-17147.467192623175
4138,-16687.71983204332
4139,-16218.770672406325
4140,-15741.207989502598
4141,-15273.404160757325
4142,-14805.145464021947
4143,-14370.358055421075
4144,-13971.893620286475
4145,-13584.939422785312
4146,-13217.622303524022
4147,-12841.50799599521
4148,-12451.470087552643
4149,-12067.113618852825
4150,-11679.924132788314
4151,-11301.11665620149
4152,-10932.257507062985
4153,-10560.191775560665
4154,-10187.21551972411
4155,-9844.012143676355
4156,-9531.428454774248
4157,-9236.186511178375
4158,-8966.122094647419
4159,-8700.051260627619
4160,-8436.573883322693
4161,-8192.819222466871
4162,-7964.1652430084305
4163,-7462.964812220955
4164,-6661.718268695074
4165,-5691.745912551656
4166,-4469.915414943107
4167,-3165.1299155859633
4168,-1782.9630323715812
4169,-162.98592792545543
4170,1664.5427560553067
4171,3499.5316755417302
4172,5348.909303470912
4173,7293.182699133493
4174,9287.025478183396
4175,11496.78279547829
4176,13936.645568515312
4177,16489.78354347783
4178,19196.878719289223
4179,21855.65609316436
4180,24436.351874789507
4181,27066.14128124244
4182,29686.2249892559
4183,32390.21296219665
4184,35188.53887306416
4185,37982.70394842375
4186,40792.09509071579
4187,43811.386910631205
4188,47044.50239823711
4189,50410.67428438189
4190,53959.370346729265
4191,57552.27981449423
4192,61180.88548238424
4193,64955.62723576079
4194,68846.46196041854
4195,72650.5525348639
4196,76360.4986517194
4197,80050.76787401755
4198,83666.47906440712
4199,87351.85681642688
4200,91111.01112868177
4201,94823.03174066251
4202,98515.78166456474
4203,102296.55940780434
4204,106158.54582486991
4205,110067.14902489085
4206,114046.32342465647
4207,117998.00902677182
4208,121915.74951272573
4209,125866.55858988335
4210,129827.22481624704
4211,133976.12726365594
4212,138336.90463563654
4213,142807.920489866
4214,147441.20476726984
4215,152148.53430836817
4216,156923.05699451957
4217,161855.47693148523
4218,166928.84845317525
4219,171990.3813235073
4220,177039.8326033001
4221,182140.7509531884
4222,187255.86583841054
4223,192499.61325781944
4224,197880.34484984473
4225,203310.95649726543
4226,208817.65745106313
4227,213482.22355045183
4228,217201.01958176395
4229,220422.43802160976
4230,222876.95355736007
4231,225069.94710726934
4232,227020.83153627813
4233,228229.68498500707
4234,228785.60169512325
4235,229379.7883840674
4236,229994.75258027925
4237,230342.44026943643
4238,230581.36965691272
4239,230153.22686598965
4240,229009.28035346165
4241,227547.50733026656
4242,225631.6323364194
4243,223858.09404748052
4244,222320.04704599068
4245,220630.11308719005
4246,218962.72067329386
4247,217052.8483186813
4248,214868.23361228965
4249,212694.63870564202
4250,210476.70000906746
4251,207616.3795671155
4252,204099.28425318273
4253,200175.90884939017
4254,195693.3911014486
4255,191071.1676685661
4256,186334.89008278764
4257,181146.70952414052
4258,175597.19968317312
4259,170414.75424852842
4260,165632.3388628179
4261,160970.12623855073
4262,156626.76705229047
4263,152098.42350850248
4264,147369.49085162612
4265,142868.82436263192
4266,138499.3596707953
4267,133854.91194177966
4268,128957.99001181207
4269,123945.0748732185
4270,118724.55679979338
4271,113659.0971450479
4272,108773.12759339696
4273,103816.0602597362
4274,98873.63379472178
4275,93330.04333380156
4276,87101.57770649006
4277,80543.2011159764
4278,73474.77305014158
4279,66196.55743084237
4280,58732.52110547576
4281,50771.130679590686
4282,42369.99688488788
4283,34064.558574547365
4284,25856.43057778226
4285,17521.770614684672
4286,9191.42601898641
4287,466.24164239014704
4288,-8683.007777212264
4289,-17951.698768033697
4290,-27431.182120754343
4291,-35848.56307813946
4292,-43040.7468200283
4293,-49669.52997027881
4294,-55356.86935873453
4295,-60761.11697707177
4296,-65912.71487719305
4297,-70135.36871644986
4298,-73544.26133354644
4299,-77167.4644470062
4300,-80988.03212433895
4301,-84567.5015657695
4302,-88144.99090880016
4303,-90912.07631483441
4304,-92798.05091396006
4305,-94388.67309721
4306,-95487.95562124984
4307,-96856.6866165638
4308,-98622.5877654294
4309,-100275.64255679309
4310,-102040.76287964397
4311,-103597.76237901718
4312,-104904.65396427171
4313,-106319.78250439496
4314,-107776.54465799502
4315,-108479.95956152923
4316,-108408.88126618486
4317,-107901.41471214668
4318,-106754.05824785041
4319,-105518.9513698082
4320,-104230.80823801547
4321,-102443.05746692723
4322,-100275.17545980755
4323,-98830.9771613197
4324,-98168.44965629852
4325,-97851.67483187452
4326,-98184.23083710996
4327,-98419.86352604348
4328,-98535.190227702
4329,-99174.76378836321
4330,-100196.05771942098
4331,-100962.86545417203
4332,-101508.28697143027
4333,-102053.31373309095
4334,-102454.40876470144
4335,-103273.04710222411
4336,-104548.7210733157
4337,-105892.5573063081
4338,-107438.0754911007
4339,-108281.69077669276
4340,-108299.1926273044
4341,-108017.9296576631
4342,-107173.81490675888
4343,-106204.27890996239
4344,-105146.06128904567
4345,-103544.44165651676
4346,-101484.22301349022
4347,-99762.2964505518
4348,-98383.08699734522
4349,-97013.8350942435
4350,-95850.4295637286
4351,-94302.95253795502
4352,-92329.19089943015
4353,-90382.32003626728
4354,-88328.31048363807
4355,-86646.07622311903
4356,-85433.7517438081
4357,-84370.41875632308
4358,-83607.29675895977
4359,-82976.08292404207
4360,-82460.12011646995
4361,-82283.76426529541
4362,-82420.31608927029
4363,-82356.7217622626
4364,-82087.16284196274
4365,-81849.38810998367
4366,-81519.2903904729
4367,-81464.87795509046
4368,-81719.72488723413
4369,-82002.61753233189
4370,-82401.36258028891
4371,-82752.20155424572
4372,-83010.95537338844
4373,-83321.06736765947
4374,-83630.17189354321
4375,-83973.39672627894
4376,-84362.72915114388
4377,-84733.93075730893
4378,-85094.67892057373
4379,-85682.58895740821
4380,-86509.01504367254
4381,-87464.86943137343
4382,-88612.45941812904
4383,-89799.18041676094
4384,-91014.75801299389
4385,-92388.3642057134
4386,-93887.4596490789
4387,-94923.70266571283
4388,-95453.7666446565
4389,-95731.76018256719
4390,-95592.46328655002
4391,-95406.50260150032
4392,-95187.14112905784
4393,-94600.35523471236
4394,-93715.77559555027
4395,-92909.4067354645
4396,-92166.50185707974
4397,-91346.28509978202
4398,-90534.61642398668
4399,-89412.69791548718
4400,-87956.4848706133
4401,-86390.35522840261
4402,-84638.14274957983
4403,-83133.75453000817
4404,-81940.2979348269
4405,-80795.13429124167
4406,-79825.53146731286
4407,-78828.74714736581
4408,-77785.66878683855
4409,-76911.07860057968
4410,-76165.12130755853
4411,-75147.83547338584
4412,-73854.73949320873
4413,-72453.91995102279
4414,-70846.00554515874
4415,-69322.08113864574
4416,-67902.41550575536
4417,-66360.42048120001
4418,-64761.479706677485
4419,-63327.200007837964
4420,-62055.003188540235
4421,-60887.830194723465
4422,-59883.55796669635
4423,-58861.221190707634
4424,-57819.064869759604
4425,-56899.16715777437
4426,-56067.01040528687
4427,-55247.16424638142
4428,-54451.98361084193
4429,-53696.99004969531
4430,-52968.063850853716
4431,-52352.562810044205
4432,-51856.351635006984
4433,-51426.988666074976
4434,-51086.29576270158
4435,-50602.70413123431
4436,-49950.37132238592
4437,-49256.14581828406
4438,-48454.33976089952
4439,-47668.92902118095
4440,-46909.632777570245
4441,-46056.59218045245
4442,-45134.79592127102
4443,-44330.79094989807
4444,-43644.82915196364
4445,-43003.19643457537
4446,-42451.96877778395
4447,-41850.41180244807
4448,-41189.63558902651
4449,-40577.64999908086
4450,-39983.1128054384
4451,-39365.68178941117
4452,-38733.24221974761
4453,-38082.41930511025
4454,-37404.59566595535
4455,-36749.09018394105
4456,-36115.479848708834
4457,-35471.88756541035
4458,-34828.240078249604
4459,-34175.37254750681
4460,-33509.034683377875
4461,-32840.273339169056
4462,-32165.6852393487
4463,-31481.139410923646
4464,-30787.175375934712
4465,-30082.600543089007
4466,-29366.283602873875
4467,-28710.234353699365
4468,-28120.9096634127
4469,-27563.295569482376
4470,-27057.6342595428
4471,-26561.998983082845
4472,-26074.086300825893
4473,-25632.86221882928
4474,-25230.184656417026
4475,-24816.07557717039
4476,-24391.58015090406
4477,-23975.815586440756
4478,-23556.940598702924
4479,-23175.14688363357
4480,-22833.232912818898
4481,-22501.7917337259
4482,-22190.13103888735
4483,-21774.319778765584
4484,-21238.783186449506
4485,-20648.45299288893
4486,-19966.766231376227
4487,-19258.10382020167
4488,-18525.751714663587
4489,-17704.137601339356
4490,-16804.778218714066
4491,-15927.53333859144
4492,-15070.992733327246
4493,-14193.019978472015
4494,-13317.037558087286
4495,-12364.945514847674
4496,-11330.169460833495
4497,-10269.738722280123
4498,-9164.925832822611
4499,-8087.316923914661
4500,-7049.307301375624
4501,-6002.8641594313385
4502,-4969.348160585192
4503,-3919.3799268791854
4504,-2849.2037598615143
4505,-1792.4780094214377
4506,-743.259940770003
4507,373.4743438869588
4508,1559.5601742332315
4509,2782.6828896333163
4510,4061.8982765066644
4511,5344.868602913529
4512,6628.087366558083
4513,7953.549422058829
4514,9309.76100007647
4515,10599.194653537032
4516,11816.884606316922
4517,13000.551797132051
4518,14123.338627004141
4519,15251.550018833535
4520,16387.054240680394
4521,17472.60710528231
4522,18520.760607883418
4523,19586.37760812134
4524,20666.27950681303
4525,21741.44621586508
4526,22824.086451514304
4527,23865.08645971212
4528,24860.868093554047
4529,25845.042391346724
4530,26805.80188275985
4531,27823.39060547258
4532,28908.605222376696
4533,30014.527858067362
4534,31164.471079321167
4535,32319.162495133693
4536,33475.18080263301
4537,34672.891614688386
4538,35904.54577028694
4539,37099.42678181497
4540,38257.01077193431
4541,39406.5437374977
4542,40530.52814139718
4543,41681.106186827594
4544,42861.851815242575
4545,44032.45239364621
4546,45204.63009549567
4547,46461.67235600604
4548,47807.68483355926
4549,49212.11159396047
4550,50698.07001784015
4551,52208.294369328345
4552,53741.68553265983
4553,55347.84366186929
4554,57016.234192682365
4555,58701.91418093708
4556,60408.12333490546
4557,62150.615793514095
4558,63919.7591979209
4559,65757.1268856641
4560,67666.07618229747
4561,69619.01072588505
4562,71626.23279517044
4563,73615.85226261476
4564,75578.75226033229
4565,77557.03311944036
4566,79530.12043834408
4567,81534.2626888526
4568,83572.85639855213
4569,85609.70871889753
4570,87652.26122414648
4571,89763.6624647321
4572,91944.65221527168
4573,94169.75228900491
4574,96454.83244546603
4575,98753.74167175517
4576,101063.66202243356
4577,103420.81930068549
4578,105815.10890056916
4579,108204.06275203162
4580,110587.58680461327
4581,112978.56967630202
4582,115365.89726638875
4583,117782.97120043071
4584,120230.50478476717
4585,122682.0064613374
4586,125144.02200720547
4587,127634.49250602035
4588,130151.59362561801
4589,132690.8165775935
4590,135255.994593276
4591,137828.9237304879
4592,140408.56675248657
4593,143006.8286791672
4594,145619.40917887597
4595,148289.4111075361
4596,151022.11293322116
4597,153793.94301922372
4598,156617.3882699527
4599,159470.2299491182
4600,162350.92815875084
4601,165281.78159005553
4602,168258.5440379425
4603,171246.1581599033
4604,174244.7828982522
4605,177268.80588884238
4606,180309.761558096
4607,183394.4037372821
4608,186524.70447289088
4609,189680.5568218049
4610,192868.13720105102
4611,195439.73125444617
4612,197326.6373780053
4613,198836.1856312371
4614,199779.27490388896
4615,200521.95410750137
4616,201077.16876078694
4617,201088.53791497834
4618,200620.82623889364
4619,200145.9925501386
4620,199650.10042966073
4621,198938.7785730374
4622,198119.5464016104
4623,196806.32562060797
4624,194965.49049855737
4625,192870.18719778777
4626,190425.91323860426
4627,188068.29891502825
4628,185863.42144144262
4629,183531.98772691857
4630,181200.88547242462
4631,178672.59821128816
4632,175923.7956094544
4633,173164.60050052046
4634,170353.72205528794
4635,167061.67109201752
4636,163278.60585831275
4637,159183.3351986043
4638,154666.17887999053
4639,150029.65387860077
4640,145292.0897208692
4641,140210.30507853685
4642,134849.60480486712
4643,129702.7520109901
4644,124790.28658996527
4645,119925.62871698545
4646,115242.6281307102
4647,110396.63185233316
4648,105377.0684261118
4649,100475.27818297234
4650,95624.6207612153
4651,90555.01948267758
4652,85281.9710260768
4653,79894.65990171798
4654,74332.21871218631
4655,68837.34117046192
4656,63426.043518672035
4657,57930.910578387804
4658,52409.177467935995
4659,46437.67892883611
4660,39959.238382392046
4661,33216.38715885898
4662,26085.315015668115
4663,18773.129012203364
4664,11295.99093349532
4665,3439.3057638824585
4666,-4757.350473020525
4667,-12928.477785772333
4668,-21073.384188538355
4669,-29344.892427309733
4670,-37653.90880983731
4671,-46273.75754515032
4672,-55224.630159130866
4673,-64298.52278853622
4674,-73558.17465358075
4675,-81763.152621383
4676,-88764.09406854966
4677,-95186.87943596432
4678,-100665.39756545071
4679,-105861.92286267449
4680,-110804.65507625842
4681,-114826.59396097322
4682,-118044.25018560835
4683,-121426.1635575345
4684,-124952.52377784568
4685,-128215.09317290758
4686,-131437.81571772342
4687,-133849.60492396727
4688,-135383.29628839428
4689,-136593.6044714625
4690,-137293.15108559368
4691,-138255.41919857456
4692,-139605.79498958195
4693,-140834.44691629955
4694,-142168.93381941286
4695,-143274.70507018908
4696,-144109.7491796943
4697,-145041.7323441429
4698,-146001.08596435713
4699,-146196.85477131026
4700,-145609.23169690292
4701,-144572.3634869306
4702,-142884.09839972688
4703,-141096.88801882375
4704,-139245.19890912191
4705,-136883.5473438409
4706,-134131.53017880392
4707,-132019.46889391198
4708,-130598.14843550413
4709,-129466.2454220221
4710,-128906.16459312856
4711,-128214.07403344043
4712,-127368.26242969629
4713,-126972.82518953616
4714,-126892.96015522181
4715,-126544.33655760245
4716,-125958.51851476272
4717,-125335.68945881662
4718,-124544.21335674298
4719,-124103.0226501941
4720,-124048.10599256723
4721,-124020.83470821066
4722,-124144.4475880413
4723,-123562.84086354537
4724,-122159.15735031791
4725,-120430.42301720267
4726,-118126.48030724874
4727,-115663.55240772523
4728,-113075.96604853698
4729,-109931.91131562155
4730,-106311.86036708234
4731,-102966.1238201831
4732,-99898.18287325677
4733,-96794.87779893535
4734,-93840.3005525165
4735,-90477.54395708423
4736,-86666.52354346373
4737,-82834.11089611353
4738,-78853.50771278265
4739,-75464.27444559464
4740,-72788.21199071972
4741,-70387.52467870366
4742,-68488.4047138708
4743,-66766.82145198164
4744,-65201.12490312533
4745,-64161.9501061288
4746,-63594.537350610895
4747,-62808.282244303904
4748,-61803.92307184932
4749,-60889.808213741424
4750,-59901.701414380725
4751,-59356.31215443853
4752,-59299.75503582826
4753,-59346.69810459615
4754,-59621.283028563375
4755,-59772.26093599073
4756,-59728.224285602926
4757,-59749.40146586911
4758,-59728.9546178009
4759,-59789.539620617245
4760,-59952.61904971383
4761,-60062.24684289885
4762,-60144.13135523836
4763,-60614.31714318011
4764,-61487.498307751215
4765,-62580.64140760186
4766,-64001.268107897034
4767,-65469.45092171787
4768,-66966.99160438642
4769,-68724.36563208267
4770,-70681.27756951525
4771,-72070.28851098729
4772,-72841.88186802948
4773,-73314.9733681462
4774,-73275.92764222866
4775,-73223.51407513136
4776,-73174.48162440822
4777,-72687.6547526734
4778,-71857.3700846608
4779,-71152.86520105963
4780,-70553.15955580639
4781,-69887.67521732645
4782,-69262.9595614582
4783,-68274.28062561863
4784,-66891.89385147959
4785,-65398.58025705868
4786,-63697.76119385543
4787,-62382.39621045925
4788,-61536.45592745915
4789,-60806.822204972384
4790,-60367.06141530094
4791,-59935.35115276899
4792,-59486.40352404082
4793,-59315.94457910341
4794,-59368.857852849906
4795,-59109.326222516
4796,-58532.62003546667
4797,-57863.135942574496
4798,-56968.31572864975
4799,-56240.97689455551
4800,-55708.728936216736
4801,-55067.45576183826
4802,-54405.78095978017
4803,-53791.052486121924
4804,-53196.64139528654
4805,-52654.57279633031
4806,-52175.939367356186
4807,-51650.17653574387
4808,-51079.99589490024
4809,-50529.24314969819
4810,-49975.50741475516
4811,-49483.168059442854
4812,-49064.11856662707
4813,-48672.18720358514
4814,-48326.4473584924
4815,-48008.80387258343
4816,-47715.85742613913
4817,-47473.55182797044
4818,-47278.4161940664
4819,-46975.71030353905
4820,-46554.653933498535
4821,-46086.62297717122
4822,-45529.21521953917
4823,-44978.43545944081
4824,-44439.52408354975
4825,-43827.270872560606
4826,-43160.89522085337
4827,-42538.7137077532
4828,-41958.12718904522
4829,-41384.110619859304
4830,-40840.061484895545
4831,-40245.19187142513
4832,-39594.57818432947
4833,-38947.253893075445
4834,-38284.883567991106
4835,-37718.913300668886
4836,-37266.70340396734
4837,-36862.627299000655
4838,-36540.27453951997
4839,-36249.59480205557
4840,-35986.968432111644
4841,-35808.11559267448
4842,-35704.20145769193
4843,-35574.61789565405
4844,-35419.44648953462
4845,-35282.78557759097
4846,-35140.57012573609
4847,-35068.111063223674
4848,-35071.818892655916
4849,-35095.26247297179
4850,-35156.32483703491
4851,-35208.48392995
4852,-35241.60311330519
4853,-35291.090798359844
4854,-35342.57259799334
4855,-35410.83131220356
4856,-35498.664479173494
4857,-35585.8510911889
4858,-35675.39413083175
4859,-35824.02146717885
4860,-36033.73681758467
