-29981
-31054
-2271
39319
61325
47545
14362
-30379
-70534
-60981
5358
21599
-50241
-134098
-169363
-169265
-138681
-84211
-53300
-67826
-94404
-109644
-109711
-79609
-25531
21919
47123
68636
104723
166189
228688
242351
187650
102254
18230
-40144
126368
37000
-76619
-172229
-207199
-173409
-94858
-35643
-39177
-86382
-135263
-147873
-114750
-105247
-147837
-194414
-205386
-183936
-143359
-50293
133734
400070
804609
804165
639717
370721
71513
-232872
-488942
-631217
-633036
-526763
-370719
-209996
-75491
20643
74537
99271
108847
99823
61587
4743
-57216
-123579
-126857
-122774
-114876
-107507
-111302
-122316
-134142
-142281
-130714
-86979
-33467
5973
29306
36258
43249
39748
22740
10227
13998
33174
59906
119547
124489
127588
133051
148887
164897
179567
182292
170164
151287
129629
104366
71039
46858
47663
57524
50224
21213
-11423
-38887
-52297
-48717
-45258
-44161
-45027
-39702
-33539
-24516
-17541
-19617
-33716
-56216
-76801
-93804
-95508
-88391
-72956
-60172
-56957
-48384
-28561
-8948
7864
52049
23944
-4142
-24202
-35346
-28201
-13748
-851
10888
15101
26409
31732
32964
153
-107195
-216076
-157301
89850
393688
640439
728009
584568
85399
-72546
-221445
-378633
-468726
-447852
-342671
-237070
-162777
-98189
-29151
38981
189803
224985
253058
273826
279783
258018
212723
162594
127909
112255
107019
107454
107204
102321
90883
76778
60868
44058
34093
42122
55314
59823
41020
34906
32521
39688
48288
40154
17904
-794
-3899
8772
29477
50733
62628
75009
85142
89643
90420
83814
71356
52046
30801
-48056
-89741
-95995
-75730
-57199
-57996
-66276
-70723
-67316
-60117
-42189
-16246
-1909
-19512
-49047
-82484
-98179
-63606
15528
92466
111328
-16008
-18620
-11238
4741
30199
66691
104435
140478
166100
189893
209674
210084
151053
58141
12371
29251
54044
48050
31309
27391
23244
16944
38193
56736
62983
38915
-19698
-78778
-116200
-126837
-107988
-79818
-65722
-68629
-65139
-41170
-15301
-2598
-3000
-11758
-21148
-38962
-125389
-162446
-149536
-106340
-72724
-68719
-75453
-72057
-64691
-62961
-68645
-68457
-50001
-22159
14950
47658
55937
20637
-34279
-70709
-77971
-73136
205026
201618
184361
154258
119913
89942
80554
75594
65469
45199
10800
-18509
-26855
-73637
-220952
-404461
-535615
-556919
-464339
-361825
-282351
-176811
160557
318805
470810
619972
759715
848394
822124
649539
369416
75630
-176931
-401441
-597302
-721709
-735134
-630381
-440661
-213271
16315
345797
277763
151624
-5833
-126943
-220634
-272926
-241473
-159607
-62521
10004
50934
74119
85125
82039
68558
54883
32241
1422
-25849
-48959
-74483
-111640
-103977
-90202
-90694
-99184
-99046
-75255
-46732
-24133
-15888
-14253
-4026
13599
41636
60818
62366
60164
57311
57386
60226
62854
74257
81205
90261
96411
103221
102671
97678
81828
62066
45983
28927
5889
-18787
-24177
-12551
-20049
-57240
-102201
-129043
-126936
-111826
-96281
-73594
-64642
-57358
-54645
-50941
-54454
-68262
-75496
-58413
-29873
-15931
-25069
-39249
-52342
-69551
-83294
-83892
-73282
-52659
-27362
-590
52809
79850
106424
123144
135991
150563
159670
159243
153248
148524
156472
171089
188810
184433
161449
139585
122786
96888
65201
33683
-1438
-39255
-161781
-301829
-466034
-511195
-330594
25149
391683
605092
535150
305046
97969
-19879
-103419
-200136
-273484
-306731
-309205
-279500
-219196
-121421
7119
285483
363323
340749
259612
204699
183293
175656
63436
-6009
-64735
-13597
66720
91880
67671
35628
10843
-2216
-8559
-14481
-32444
-58898
-79909
-80340
-66631
-53407
-41054
-17500
24524
133928
155401
131286
104612
86351
77109
88248
120239
135619
83886
-17944
-85659
-102710
-100329
-73102
-49164
-31034
26387
86118
63561
-28416
-57489
21983
51355
7456
-40257
-62338
-67577
-54571
-23040
4032
41266
85401
124015
133333
116923
93935
67258
41149
7583
-30682
-52106
-64270
-5184
9104
43568
144858
167153
119843
63864
22306
-18262
-46559
-50012
-39542
-32099
-21137
2736
36593
39037
-11191
-74246
-117336
-118035
-87007
-46557
75235
-2181
-76764
-130352
-223942
-378479
-534884
-627107
-612954
-524851
-433401
-332952
-191182
-13066
159409
337653
526483
685909
787734
781308
654676
228181
27393
-110211
-253705
-420456
-566620
-632474
-609216
-500926
-320621
-89032
143820
322125
418414
-63094
-65896
-76544
-131439
-209926
-263409
-273863
-249466
-210745
-179252
-163077
-139917
-100325
-47071
-11023
-8342
-30766
-57721
-59730
-47016
-36610
-35966
-33416
-11946
41091
87420
89719
80736
92758
118903
136889
140425
137199
126546
107003
94756
101418
103217
85308
71619
56866
36744
24718
-9343
-38221
-61161
-65691
-53562
-29232
-13133
162
14711
15657
22268
34138
48782
56810
52226
41436
33490
19956
-409
-12222
-8563
5878
9803
7379
-10396
-45549
-72935
-81119
-87454
-77021
-62291
-67761
-76296
-69257
-53146
-25382
-2297
10073
25167
42303
53063
58565
677470
452658
221968
65257
-67223
-242406
-410448
-467557
-399617
-251568
-71736
81079
172208
209314
217097
213258
201628
168760
121243
53263
-35049
-112813
-90918
-60208
69168
44935
13337
-5127
-71494
-47175
-22821
-2221
1659
-11661
-25500
-35372
-43377
-48160
-48303
-43319
-31854
-30214
-36461
-45262
-44791
-32325
-9347
20026
37376
52134
38113
19459
17836
22794
24526
28089
49049
88681
116128
143087
184697
193586
162940
126087
97699
93059
107501
116346
111674
100808
44885
-1409
-30447
-43603
-57536
-69559
-76786
-76057
-66282
-53649
-39226
-22462
-58957
-59441
-58840
-54668
-54479
-57696
-70924
-99551
-125421
-144171
-156483
-158707
-146841
-123749
-94384
-58967
-28784
-5742
7853
24709
47653
75414
57849
38964
19329
-2323
-27498
-41387
-34343
-17870
-3012
6383
11458
24065
49953
65899
66054
62889
66317
85131
111197
141264
165339
179521
169959
154091
134589
117913
94368
58764
8242
-42250
-66002
-61749
-71974
-109118
-156115
-191564
-208081
-207222
-212938
-231784
-239750
-218430
-134541
-59227
42873
128936
240026
419944
568676
580944
483722
330939
137931
-72734
-285690
-465486
-556216
-527294
-400606
-230815
-72487
29880
68286
70319
54288
21588
-30566
-82203
-115334
-127651
-121763
-109397
-108504
-3422
1404
10672
16018
9869
2853
5725
15058
25585
35708
45884
61858
91951
138031
192873
235718
249066
228130
185905
134891
104666
75805
35595
-1888
-17105
-14324
5014
35906
67530
89243
97496
97808
78407
38163
-4445
-31686
-42711
-51374
-55210
-55665
-69825
-92138
-123686
-125088
-136055
-131584
-101214
-72959
-74014
-95088
-106237
-95953
-68345
-35146
1386
29066
41909
54891
75773
95468
105231
105429
104376
106829
118289
128359
133054
138452
155746
175564
183957
174964
149024
126496
113146
93418
82839
85574
98843
113154
110174
51411
-101464
-302382
-353161
261628
629331
812685
697977
402766
118623
-97033
-293229
-468741
-578220
-591808
-523607
-392136
-232132
-94868
-5339
30116
32926
30339
10320
-88738
-379776
-390921
-297223
-152207
3466
126119
205869
242818
251802
243565
225645
201764
179763
173112
169399
152363
127922
111339
107447
104154
106312
110641
77789
83883
84631
75623
66507
59604
51976
45781
37015
20555
4622
1034
-3951
-7712
-14728
-26213
-36432
-33914
-17200
4929
3245
-5019
6415
-3400
-32677
-63321
-84851
-95232
-105498
-115516
-121583
-116280
-92922
-73727
-56704
-40705
-36635
-38054
12816
33071
47770
54036
56227
56193
52657
47058
49178
55098
73133
87623
95631
98962
93803
83321
68498
51825
40584
35986
35359
39929
42090
31542
22090
20334
23917
18483
1016
-20126
-33018
-40643
-51718
-62659
-77587
-88294
-82767
-75329
-84852
-100609
-102437
-82707
-52483
14603
28986
21221
3780
-967
13951
33427
36831
30904
23116
17786
14341
17031
28986
42623
55109
64689
69281
67656
60669
59201
61344
83095
106249
140968
182717
208046
207609
182962
150109
133924
140932
156569
156344
132221
96979
52428
1553
-52599
-98194
-123588
-127439
-137262
-604119
-437505
-248967
-59872
108616
243467
341727
395312
379212
286873
169139
96072
53576
7509
-36187
-75297
-115734
-153298
-183139
-218990
-265531
-340046
-329178
-290992
-236390
120881
134419
136997
141505
145811
144090
144699
152009
158973
160844
149076
140399
132415
122339
111674
106584
99881
91877
92297
92467
82059
60552
8683
-31969
-59166
-84647
-115764
-135626
-135177
-126142
-111322
-90672
-61092
-28969
-12542
-20957
-39962
-38722
-27584
-6918
21113
59664
118762
265684
241449
141452
17366
-58234
-74528
-66652
-66604
-72190
-63184
-37699
-6673
16010
32271
42463
43540
27307
1827
-24925
-48596
-69297
-72944
-52419
-53058
-60406
-69251
-94286
-128251
-146861
-217115
-380985
-477691
-326980
-15004
337148
615719
685940
530483
315220
174311
76119
-46835
-171669
-214877
-139641
-36105
63361
95550
46767
-17721
-65884
-68486
-29418
26153
84493
134603
172132
203158
241609
301340
360929
378833
349883
293077
231951
162424
147081
144388
156398
172543
163412
117933
69809
62154
97468
139367
147681
122144
94719
71661
23249
-58635
-152840
-167485
-106272
-66294
-104632
-147338
-157758
138061
128607
80923
54825
105864
159841
141997
82542
47515
40009
31806
27296
19716
34128
73804
95403
57508
-3504
-44519
-62142
-72204
-66119
-43241
-38826
-53424
-68207
-64477
-45885
-35863
-45024
-49516
-29442
-5162
11656
36063
38098
21140
12836
8389
7008
10823
6815
-9250
-32541
-55794
-81561
-111834
-130898
-129281
-118774
-107893
-96936
-87742
-96155
-136178
-129821
-129760
-164767
-214056
-241517
-238935
-225384
-249975
-302698
-325035
-321744
-312963
-319190
-338234
-326113
-269181
-284649
-334860
-275308
-266316
-501324
-379267
-307674
-300326
-278628
-227846
-214932
-269926
-280499
-175854
41005
79412
-90766
-115294
9864
103608
153699
230967
284279
223481
63893
-137676
-162562
-165223
-163182
-167565
-138303
-34693
108606
274800
470731
663470
811794
914731
956201
901461
750666
555621
334082
47603
-279337
-563691
-726877
-736749
-615901
-388094
-100824
162064
336450
392819
363547
281483
157036
8413
-138775
-260882
-326932
-337609
-333652
-340296
-357739
-386219
-377476
-309641
620393
525831
451082
406799
372298
324114
241936
155737
86789
40365
39954
70131
75928
63031
55355
35834
-11851
-84181
-177082
-274968
-363746
-465979
-465932
-452655
-456963
-468237
-452739
-414651
-370527
-317597
-238889
-152796
-89144
-52782
-39079
-32934
-42649
-65224
-98126
-137298
-445564
-475018
-487421
-473367
-434606
-413028
-424434
-450259
-465797
-450307
-393324
-329418
-306369
-343586
-402236
-442966
-435632
-400045
-355031
-316374
-283044
-238236
-192305
-147858
-134592
-147687
-159811
-177714
-196604
-237338
-351429
-533139
-655909
-552832
-213269
244971
646226
790086
698146
524750
350793
171594
-34281
-254680
-198120
-133527
-105576
-80572
-31209
45346
173872
301384
393190
442441
460060
455311
444994
441628
440393
424589
389729
343662
287326
232696
130188
96770
86092
94733
111582
133558
136434
122743
106693
99709
96958
99666
106778
120182
147882
163376
163693
144769
109874
61777
13384
-16395
-57991
-82504
-88255
-89191
-92976
-126201
-184677
-250041
-318001
-359394
-370666
-345186
-285679
-210450
-123661
-18202
88596
178998
258704
325562
370185
401557
399873
400745
423943
447616
488057
493991
465204
423444
392503
356764
267488
490995
519753
530701
526338
509968
476384
409236
160374
63948
-50474
-177686
-310844
-436839
-548512
-642101
-717002
-769282
-803893
-820356
-836029
-854961
-846154
-813789
-94717
-270837
939560
1028240
1094924
1139452
1159782
1132373
1071039
1014006
977133
953377
932481
911769
891954
866535
821529
741123
629137
504679
378584
255129
139525
33415
-151613
-222840
-275809
-315482
-350027
-383796
-437521
-531621
-659200
-784271
-852807
-862376
-842437
-805999
-729956
-598216
-427427
-247014
-61822
111824
260450
446189
441171
322024
139889
-48625
-240493
-436782
-610574
-711194
-738294
-684391
-528269
-256768
77760
422444
729364
938188
1024106
1000686
889040
736501
580585
-490458
-505292
-503122
-499371
-488732
-457646
-425255
-384149
-333233
-276457
-216696
-166123
-105477
-36961
34516
95049
127466
145992
166339
189385
208245
220810
266491
287109
307070
337648
356844
380020
395741
393907
380709
382771
401828
421986
442988
449484
-41219
-123147
-184099
-219769
-239366
-252695
-271914
-289944
-298465
-294992
-285008
-274360
-263240
-243922
-219622
-186428
-152982
-128851
-112842
-101960
-90736
-81177
-89171
-144040
-140244
-119673
-72136
-8047
46122
77078
81373
58537
15387
-166050
350380
883388
1212195
1242743
1057461
791389
515621
254143
37683
-87381
-101952
-15179
119077
208674
176418
42222
-94576
-151364
-103786
27394
183468
307244
362536
359788
321501
275333
230876
181934
130376
67074
-1434
-64475
-115136
-138084
-133085
-107837
-70372
-28286
14125
47555
64796
68548
59273
42769
27236
18599
8253
-17734
-53649
-89302
-112013
-121698
-122525
-114295
-97719
-66287
-27979
7122
31766
49069
58866
56945
48291
30359
12758
7904
12154
19768
22348
24091
25919
37866
60501
84191
108786
136414
165009
177289
175821
170203
154286
128853
90571
53800
20834
-6464
-32402
-63672
-86866
-108436
-134982
-160201
-182037
-184662
-186345
-194349
-199353
-193070
-193406
-188696
-180742
-167404
-157832
-142471
-114956
-75541
-28562
7363
32380
53741
73511
101274
137813
175504
212031
253379
280016
291528
291613
284749
264296
228706
186259
136410
85253
39799
3901
-16867
-29251
-37256
-44004
-47009
-41814
-27652
-11361
15304
49334
86579
116803
130652
128243
107096
69212
14906
-52151
-115234
-173215
-217238
-241573
-244712
-238672
-226754
-209226
-188241
-165750
-148930
-131146
-119112
-103864
-87642
-67544
-44711
-28142
-29169
-27553
-14019
-10004
-13982
-9787
639
20458
43061
80210
134782
198189
258771
306213
332219
341490
338077
319936
302162
274271
229783
180596
137645
102409
73730
64973
65008
60326
52846
49284
51704
52148
50228
45744
32938
15969
-7628
-37601
-60264
-72713
-77423
-77239
-76883
-88251
-116284
-147397
-187214
-235579
-281551
-343197
-442891
-563874
-682769
-773465
-811512
-809484
-779876
-693636
-529959
-324749
-84278
167609
405561
627376
827361
981531
1056493
984584
749955
432839
126159
-128775
-333097
-465321
-501406
-427702
-256379
-13913
248301
480064
658509
762846
790314
734353
609124
442559
276732
135522
25259
-56019
-120780
-194077
-271309
-346152
-405679
-442067
-448594
-416396
-350448
-269986
-191017
-128553
-82360
-59561
-52308
-58801
-70769
-85596
-94194
-100450
-102779
-99545
-94410
-83597
-69577
-52207
-39834
-19531
12128
50768
92980
127940
162712
189206
206785
213194
206868
193017
178671
162067
143642
124622
108699
78256
62361
17246
2368
-19085
-18286
-52505
-46187
-46517
-33012
-31256
-23582
-21802
383
19639
30992
40521
45745
67466
81568
103830
97341
113249
101534
82881
79964
60321
70600
55343
50127
24712
18096
-1390
-29886
-54398
-85962
-120130
-129919
-146700
-151530
-184447
-217259
-224625
-205966
-157754
-102589
-47574
-24171
1146
7948
969
-14995
-21602
-39646
-37814
-51057
-74369
-98001
-117946
-127622
-158942
-188711
-251986
-410654
-609918
-691695
-522634
-194960
221176
553896
637508
481750
205463
-69195
-301367
-493583
-630248
-675077
-633511
-520416
-384391
-272471
-242378
-282198
-364849
-423306
-430594
-345616
-223809
-96854
-5204
54727
92450
113339
118931
114663
108373
99618
111402
126973
138298
140470
149977
150877
160386
186706
227466
283772
342824
391748
421736
446113
450777
437169
414318
376691
316801
252633
192918
145694
124339
123094
141610
172610
214498
255411
298163
332133
358061
382546
388566
376159
366769
353334
333994
304566
269524
225626
175353
122844
69576
30130
9504
-6807
-17437
-18171
-13194
-3221
10564
23574
21647
18411
20530
12994
8772
21070
45196
82078
126404
165116
195384
232536
271144
282593
267463
230679
183556
144976
117155
95156
73562
53468
39783
31924
23406
-4804
-57812
-128995
-202385
-271083
-327025
-366176
-385284
-389674
-372751
-333630
-278647
-228113
-200267
-177559
-169535
-179487
-212105
-259575
-308225
-344459
-364126
-365677
-358075
-342923
-314865
-275364
-248536
-234962
-241585
-250071
-233996
-188738
-118677
-39077
41944
138706
243733
332104
400662
446161
466677
463794
446746
431506
415973
403976
394313
374737
343720
307866
273667
242154
217102
188905
155477
116790
77792
29413
-17181
-55724
-77005
-94593
-110029
-122372
-149159
-186706
-233955
-287319
-353744
-424400
-487937
-535509
-558969
-562036
-553781
-543289
-520029
-470661
-393271
-295607
-190527
-94509
-25242
32118
77495
114989
154847
207583
281821
367924
445702
507214
548983
589053
619416
639331
640764
632991
610074
571948
528056
478419
426789
379717
310202
192589
16453
-155699
-268719
-334877
-382068
-415216
-402073
-308055
-164526
-22777
117539
259349
369386
437601
475098
460199
333787
81363
-217891
-512501
-823256
-1143214
-1425536
-1560436
-1500469
-1261141
-879416
-458644
-57882
292324
545779
674666
706774
641351
498601
313253
122282
-29888
-119761
-152539
-154464
-162167
-185538
-227151
-270901
-304241
-312236
-319827
-358259
-422858
-483687
-529752
-552340
-566405
-590620
-609509
-599020
-569607
-546812
-536737
-536059
-534642
-522934
-488499
-436589
-368561
-270232
-163799
-56993
39928
116704
189584
255138
308928
349666
378739
400035
414721
419127
411898
392446
362602
326860
293723
266575
241009
232022
238163
254803
271506
288203
291954
286063
282998
282746
280669
253177
180116
90546
37978
37823
77488
154048
252461
346362
389937
361728
313886
283922
286014
306840
331590
350084
340273
332368
347904
378099
392886
381216
337706
275943
220011
188016
174267
169563
168506
151621
98996
43011
984
-62601
-158766
-263772
-357451
-433556
-500170
-537081
-546373
-533907
-524725
-513199
-496394
-482170
-492099
-532809
-623850
-799446
-1017455
-1038061
-745691
-245012
282262
630931
695728
552484
339288
138091
-41783
-182449
-254686
-294678
-333462
-378554
-398533
-359721
-258662
-108959
56826
187788
256778
266243
234160
169993
99186
21630
-57172
-133161
-199954
-245353
-256861
-239414
-203939
-161086
-118583
-70587
-2274
76248
148566
197266
215009
217603
228170
250364
273399
293148
299964
296884
289903
290711
298077
301889
302135
286359
257770
216213
185589
204158
262862
329408
388231
441068
472809
485804
478432
434957
363019
289168
221791
164419
116343
68698
12959
-55934
-132496
-198220
-228573
-231281
-235133
-226631
-201412
-182141
-168911
-155932
-141672
-115836
-78908
-41534
-6164
38136
88418
134702
164962
174336
155834
123342
88973
60455
36523
15993
-1758
-17236
-37461
-58672
-73215
-87038
-103529
-124307
-145807
-168221
-192813
-214291
-239212
-267945
-297238
-322727
-346833
-361997
-365728
-364029
-348220
-331357
-313026
-290825
-268643
-245878
-205222
-156286
-110520
-67601
-26000
6671
33846
62694
91522
120741
156158
201225
239788
280193
312653
329836
344635
358316
367726
361816
337494
298858
258794
223789
193177
162077
133787
112477
100986
93363
83438
84236
88266
91261
82224
44366
-41427
-173949
-344147
-528809
-676129
-767626
-814235
-814639
-745692
-630632
-509578
-384539
-275814
-170646
-52999
152302
489842
866700
1113333
1164989
1060002
854899
613153
433093
340193
288848
236559
199749
196486
199794
201351
217088
239986
250639
262984
277583
292046
299853
296852
276921
248806
234246
238259
235839
183361
69598
-91446
-230809
-296789
-286749
-238249
-175937
-91392
24860
177764
366673
571143
763149
934629
1074874
1140618
1069257
851938
550451
213796
-137834
-472306
-717234
-823071
-788140
-651498
-461764
-264972
-89940
53258
148966
183396
158551
81994
-23354
-139747
-235536
-294687
-312008
-295597
-263265
-232270
-205892
-187986
-182748
-178149
-161537
-129172
-83913
-39900
-10215
-4541
-18624
-54394
-105531
-164769
-230483
-294436
-356929
-411485
-458045
-496449
-517973
-516779
-497027
-465936
-429661
-387281
-344861
-297132
-243671
-187527
-124197
-55601
-3032
32774
46569
48626
45166
41871
48322
73883
116145
167218
224562
280844
328143
373199
405719
425064
433357
425369
401317
367805
319856
267419
213097
160909
104098
47875
-13527
-82531
-157210
-235250
-308201
-369522
-415541
-436987
-454293
-462832
-468441
-459736
-435654
-398679
-350931
-304493
-258307
-216159
-178592
-150863
-130762
-115926
-106790
-99229
-84656
-77545
-79451
-87456
-99683
-94225
-67457
-20941
35374
82411
115683
133188
139414
130884
106694
79226
51830
10704
-89714
-273609
-497374
-597082
-454494
-121850
301079
656834
784416
689819
491933
282783
98886
-58795
-165496
-188471
-130862
-12014
145490
307881
403278
405526
348005
299611
307139
377028
478296
563956
606625
597615
556056
496470
437837
390039
351066
305652
242192
161804
85197
20650
-16035
-23402
6569
57483
117323
169113
202980
220461
220519
201852
169104
119739
57759
-11392
-72433
-114296
-144359
-167707
-187861
-202683
-214834
-233048
-254472
-285924
-323241
-364811
-414611
-462172
-501937
-523129
-522707
-505489
-482096
-463776
-442555
-411288
-367546
-316267
-263028
-206093
-152383
-107876
-69903
-36058
-4167
17562
37583
60326
80568
100074
116341
127687
133568
131084
121852
109539
91899
67703
33031
-6419
-39685
-63980
-82516
-86777
-78636
-70685
-64764
-48969
-20460
7265
30095
45315
67909
83788
93078
105742
113474
117886
120574
120149
122119
124869
134846
147444
163269
178914
196885
214588
228341
237879
241427
231733
217007
193496
163809
132284
101183
78334
65574
67203
79734
93089
96908
95604
90849
76116
55898
29548
5051
-15946
-40044
-67214
-80749
-93359
-94698
-90248
-79121
-54981
-33211
-16583
-11116
-13938
-18445
-28829
-45396
-71726
-104835
-146895
-193864
-241748
-288999
-335495
-379463
-418052
-444869
-462021
-466849
-458971
-435101
-398095
-350831
-296280
-242691
-190682
-137951
-80597
-23432
30688
79705
122131
161703
197722
230645
261196
284890
301068
317713
334164
351541
361916
371706
380937
388999
398418
412630
424518
432503
432599
431613
421171
390123
330919
249467
158219
75064
-15698
-146498
-310582
-485742
-626506
-697774
-708785
-689183
-623950
-490284
-297866
-79288
140927
343902
509856
639506
712208
672093
488715
231670
-10819
-219795
-395164
-541289
-630415
-662676
-638632
-545386
-370544
-132572
108679
301553
411752
430634
369368
259514
134673
26902
-51409
-109871
-142227
-149321
-139102
-130081
-129620
-141330
-164106
-178721
-172171
-137731
-81804
-10982
63481
133123
184776
207913
197397
152413
73878
-11297
-102509
-189441
-272579
-349974
-413124
-457334
-477886
-477117
-456649
-420454
-370532
-308152
-237882
-168829
-101847
-35595
23593
82030
130402
169216
197511
219669
234953
247872
269323
284824
295256
297743
290759
275146
250264
215781
175706
134171
93641
46657
-5835
-57831
-96232
-126873
-156185
-179397
-190528
-203080
-218444
-238759
-257121
-276903
-284906
-269327
-218757
-129992
-26612
56292
106213
125978
125583
123167
119299
113554
101161
68025
19864
-42682
-113066
-177387
-234084
-278430
-312499
-333408
-348712
-361803
-380254
-399426
-417585
-435554
-448298
-450381
-445941
-435516
-423864
-411019
-398917
-395218
-410644
-472227
-625569
-839691
-901737
-661537
-216883
286101
655377
749942
630461
425775
218253
21584
-146009
-245617
-268771
-253304
-253810
-268710
-271373
-251447
-196525
-111493
-12232
70686
123852
152091
168258
180939
171544
127716
61243
-11344
-78831
-131274
-155804
-161029
-167092
-182821
-204929
-220291
-216148
-189546
-147267
-82241
17789
145634
276202
394312
490504
573844
638803
673010
679039
659022
629534
605817
593173
588368
580833
569106
550392
528488
505532
479012
451673
422461
389316
348891
301180
242403
173234
98892
30758
-22940
-61688
-92049
-113202
-127122
-130884
-126547
-115041
-100025
-86258
-76798
-61050
-44503
-19347
10925
41129
77516
115382
151439
183559
211348
224729
231839
228993
217778
200883
178884
154213
126277
93281
64889
32676
-8015
-64252
-135596
-206257
-263845
-309382
-345333
-375534
-391230
-396160
-399299
-403916
-396471
-374386
-337612
-286190
-220090
-135612
-56051
-8186
761
-6387
-1668
33917
99876
191956
293502
387364
471702
544206
596597
615724
603476
565520
511749
461115
412284
367440
319391
257854
176502
87294
-5262
-133457
-297538
-421765
-462621
-431547
-352984
-248253
-203457
-229477
-245506
-235176
-216158
-195209
-180139
-181628
-221014
-289689
-346044
-374439
-350476
-272706
-165365
-70159
-4587
27929
19009
-30761
-101057
-162322
-183089
-161811
-107572
-39774
15033
29411
-3251
-58964
-122662
-192436
-267454
-360747
-458024
-539053
-587594
-592748
-553086
-484809
-390832
-269221
-134779
-30543
23498
52507
87440
140573
199903
267408
317655
305796
244080
205524
222244
271448
292137
240908
134878
28855
7500
88676
195800
292553
406008
570514
774321
958889
1056134
1098807
1144911
1176453
1135411
995730
747016
416572
53284
-292997
-587731
-806256
-924535
-935755
-837680
-643612
-389418
-117684
130714
339324
490201
562196
553143
481601
378461
266069
153739
45556
-65119
-182531
-305937
-427162
-519066
-553862
-522157
-446799
-353386
-252229
-150337
-73407
-18813
24575
24448
-35868
-117430
-197713
-288347
-377621
-447156
-513580
-578037
-626561
-654193
-650374
-612593
-538265
-434326
-310603
-179087
-51348
57666
133533
192164
240147
281118
300928
300819
292348
287032
284571
274016
254514
225369
197551
173769
151078
121384
95609
73232
69589
71024
53985
18408
-20614
-49511
-62969
-70117
-79192
-100420
-122802
-143562
-157742
-159176
-141211
-107797
-73307
-44941
-22117
-1659
28918
72364
122373
155817
154366
113741
61494
21891
19227
56339
118582
168467
192263
189493
168564
135036
89998
44529
-236
-51054
-101419
-141536
-167919
-185967
-201618
-215248
-210311
-179538
-133130
-75161
-9864
38814
6014
-100005
-130434
58311
423914
823862
1095816
1125527
963468
725591
504779
330062
199103
134401
145777
226298
343296
442555
464554
386747
258444
150891
105647
109951
133169
138235
95853
-16523
-186118
-368833
-521592
-633049
-686608
-669079
-625301
-612872
-629164
-630783
-585707
-502342
-412833
-353470
-318559
-280382
-233127
-194954
-153060
-88306
-15724
62814
167131
299336
419479
490671
499711
466006
413364
354369
298941
261711
242326
225733
212002
206679
218973
251933
293759
334659
365120
369646
342914
285891
215814
158166
107538
67200
50313
50516
52763
34317
-18241
-97974
-165647
-209694
-252369
-284219
-305039
-319102
-326322
-342205
-359144
-371673
-366367
-340561
-312199
-281637
-262061
-259940
-250369
-214268
-166189
-124484
-87111
-65781
-40114
8260
54157
78997
82834
67648
43128
19679
20236
22371
9316
-10315
-38746
-53575
-36931
16804
104026
208314
310870
377391
390345
355014
283301
194088
97469
17119
-49193
-108097
-172048
-244309
-311979
-355807
-367302
-360244
-338398
-315790
-299885
-283730
-258352
-226194
-199305
-182626
-174039
-168417
-168796
-166496
-154811
-136161
-121874
-122967
-126130
-93330
-15786
74928
129478
139179
138888
158873
203496
246773
246969
186763
80712
-37162
-131298
-170241
-146929
-73762
40740
163077
249925
292019
316472
348629
385403
393288
358856
283954
179226
67273
-37083
-112420
-154879
-177280
-186566
-191272
-190204
-189257
-184862
-170489
-147906
-125992
-106170
-82541
-52101
-17284
428
4940
-965
3729
8558
6849
-3835
-19219
-27565
-25710
-26772
-42134
-63251
-87281
-111722
-128779
-139685
-146129
-153264
-157517
-159467
-152136
-147684
-174937
-232751
-287472
-308622
-274340
-204856
-140048
-86698
-24394
56915
154012
268518
397294
535664
669414
764262
815528
786874
625473
354709
25626
-307964
-591106
-788721
-862382
-794806
-606245
-342821
-72118
132258
232229
223291
139683
17514
-120088
-242716
-305319
-292310
-220998
-112607
-12382
45416
50427
4818
-71333
-138838
-152614
-72905
94150
296829
485297
613781
649222
579167
438943
283058
152449
88513
101496
156012
209084
243629
260714
237133
186865
141007
110893
95931
104130
145180
200223
252040
295040
326072
337635
325082
303056
286624
272931
242150
186764
110599
44060
14081
40018
93091
136310
163649
168787
155217
128305
90305
48039
10117
-16514
-39386
-54819
-89672
-153867
-226191
-278783
-291584
-249968
-166794
-50946
54357
107528
103726
68258
34184
27244
40457
63863
94491
121077
143541
158379
158382
143833
129966
111153
80733
36063
-28945
-100775
-175318
-246312
-302131
-331509
-334857
-338087
-362109
-424530
-520629
-567773
-536190
-411991
-210140
49734
345688
623548
815806
862021
816178
867217
1101824
1440847
1759636
1911995
1757166
1289198
742885
264694
-127389
-440788
-671587
-809505
-849493
-814181
-739839
-667323
-610586
-571571
-543112
-566379
-655624
-769791
-838244
-827307
-765247
-696152
-648101
-621931
-589444
-511206
-385142
-245334
-128136
-41644
3566
9353
20364
56274
106949
147393
171299
171759
140376
85087
26144
-31897
-78071
-98962
-85341
-32522
27759
71098
82816
65462
23516
-28816
-70616
-85047
-69695
-39655
-18581
-23603
-43794
-78241
-118867
-146339
-142193
-81171
14322
129408
263509
409401
529241
591704
587403
542277
530621
593451
738993
936063
1124802
1265692
1331464
1330719
1278762
1190925
1053980
879052
665539
424088
178502
-40222
-214280
-337219
-419981
-467974
-500277
-525035
-554415
-581262
-591914
-573237
-533524
-487329
-442737
-401570
-362996
-327762
-298339
-274043
-247201
-201837
-142590
-83783
-25904
26736
66999
94023
114878
139287
164752
193944
221544
231556
216836
172328
97506
8587
-77414
-150337
-203606
-231870
-247981
-260464
-262470
-256947
-251239
-249911
-246670
-231857
-202831
-159541
-118289
-89046
-75748
-65610
-58196
-59184
-72981
-104125
-143825
-184372
-213311
-224714
-220668
-209102
-197890
-186930
-170494
-142347
-104231
-57573
-9311
38124
84799
132659
180981
216064
236619
244920
249058
252798
255165
250326
238209
223223
210395
194866
179517
159428
142564
124131
106028
90805
77251
67182
62440
51890
37344
19571
43
-24902
-49890
-59927
-45974
-18126
13865
38071
57801
76596
94633
114134
134241
154109
174339
198229
226656
251458
279377
309606
335669
346934
335035
301326
247089
175358
101374
30923
-72944
-236115
-437179
-628767
-748367
-770674
-732587
-655865
-532416
-356057
-145041
73333
274970
457509
635353
789894
867539
825569
646712
370911
68054
-213840
-450694
-635935
-743650
-741017
-605448
-364907
-76307
200673
409001
522771
541903
482839
366850
227370
106605
34917
18742
48763
103081
153445
178884
186225
180911
174493
181886
192986
203696
205850
208238
200145
186931
168619
143318
114294
75483
21594
-47929
-126087
-197916
-260569
-312540
-350590
-380287
-401681
-411074
-407076
-385899
-357267
-315079
-263053
-207676
-150524
-103539
-69064
-52624
-54560
-71719
-103034
-143521
-175702
-195541
-195803
-186735
-177101
-177371
-182210
-192156
-209404
-234550
-262997
-278894
-263732
-222731
-153591
-57346
42254
99809
107657
100043
108249
145487
199575
258216
303193
326834
333850
331365
327181
320726
311438
299961
284373
272194
268005
271891
280343
294702
307778
318244
321711
325203
322747
313763
306113
300855
300044
300558
304735
302696
295605
281733
267296
246424
218573
178886
122081
69258
24984
-11394
-61947
-136119
-264049
-447298
-584436
-533854
-280128
80516
410449
574119
529034
358221
164603
-11312
-180642
-356248
-495954
-574404
-588797
-551943
-465841
-325386
-139690
56949
229350
344199
383756
339378
240071
131331
34550
-46798
-113269
-154727
-161870
-140409
-112482
-92851
-108611
-152922
-216438
-272359
-297742
-282599
-235106
-165811
-98017
-44464
10183
69584
133682
177751
188236
174822
164458
180820
233104
298504
311460
254342
147069
4756
-143122
-252274
-279773
-224652
-107887
40975
206219
380925
544310
683434
764854
780057
719217
596090
407483
160608
-68097
-233874
-343077
-433613
-525661
-627792
-700577
-729689
-719842
-669440
-593262
-492242
-373719
-218639
-53929
68344
110008
83829
49630
63242
126159
187449
202693
170637
119243
59246
17814
28004
113594
234003
322189
352863
322715
250822
161138
101409
71831
12441
-83252
-186444
-261963
-315737
-352103
-357682
-329894
-275962
-211176
-163549
-151005
-160063
-179241
-197357
-217100
-248747
-304306
-385354
-441978
-439826
-383216
-295321
-217352
-176684
-162570
-169605
-180766
-163111
-101280
13699
146267
259083
325947
348060
345998
327910
294901
253691
230308
216261
211626
204251
183585
155443
135016
130056
137242
167156
205915
248268
287881
313825
325256
324926
307715
275863
232031
181757
135699
87556
44194
10248
-10622
-15302
-1077
31741
76423
130520
188031
247119
300503
331413
338406
328278
322704
321383
319766
310421
285471
246164
204657
161924
114490
68419
27935
-2041
-23775
-21064
14573
73271
132880
192021
251738
305464
359434
443636
569690
700877
808414
888724
945052
963796
919248
796006
630205
457000
303832
183443
62858
-78705
-256009
-491383
-725655
-895563
-1014478
-1110439
-1167983
-1166005
-1116673
-1039017
-925107
-768482
-592335
-423421
-257884
-93546
39003
94109
75216
13186
-69258
-131007
-107136
1378
140574
271884
393614
530778
699528
878392
1016686
1065586
1006649
853402
633715
380613
116801
-115552
-269331
-348639
-387171
-414192
-460427
-527250
-599832
-658202
-694268
-711266
-715512
-717904
-731606
-740997
-723307
-679931
-632082
-578949
-516492
-434857
-335406
-228604
-123896
-34189
40153
99057
135893
152699
144209
126784
119959
130355
148739
165778
205425
281572
370366
445625
476331
456834
386429
275336
142879
-2376
-150674
-290646
-402218
-476945
-507106
-510312
-481456
-441367
-388364
-343819
-303912
-280605
-253470
-217389
-159589
-94461
-28017
47499
145493
270486
425783
564092
664294
690299
687863
637493
591048
541916
563783
596352
656032
670242
666932
618542
539398
432726
282484
137448
-37541
-196414
-371484
-503824
-643800
-708425
-763259
-780144
-796657
-768092
-758768
-749791
-774673
-768996
-768615
-723894
-701497
-642714
-598516
-538076
-537951
-573331
-673797
-692424
-537116
-231396
83230
282232
312544
131029
-103995
-268901
-282997
-241552
-149116
-41275
126582
312074
526204
692481
810647
843426
825418
716479
541811
329720
158408
88587
100294
162089
222144
255842
233144
178510
107367
45514
-7460
-36798
-70967
-87886
-85841
-79232
-116342
-184407
-242619
-294217
-334757
-362054
-373461
-400053
-442834
-475744
-472090
-428824
-359537
-297933
-249003
-220344
-204012
-163973
-100367
-34559
15251
48981
72392
112835
162426
215648
248434
283944
303641
338676
371441
346003
321379
269277
228382
204769
178866
153753
96269
58049
3431
-5621
-19836
-43036
-57603
-122385
-156502
-223169
-239686
-247237
-275012
-252685
-289966
-278273
-277095
-276816
-249727
-291144
-275378
-267044
-259246
-196475
-199762
-151205
-110596
-100011
-26834
-27761
-5328
28559
-6280
36493
35042
10307
57945
28118
50203
110344
84204
103381
113503
105067
147219
127176
133885
184493
191863
205343
185976
142867
120015
93059
60809
12885
-35087
-57487
-51849
-22022
6827
20703
20189
1099
-30045
-62465
-57332
1266
63252
93824
110884
115274
120366
149073
150145
197798
236862
178438
172848
167192
103437
100788
97303
88308
172096
237168
213830
157903
34044
-105839
-182537
-257619
-293080
-271759
-315051
-352789
-347646
-365808
-334931
-291357
-288778
-241044
-196094
-190257
-145169
-115704
-85241
-4678
43574
101176
177338
219653
295939
353332
368424
379768
348941
318059
316209
306454
317165
298250
243846
187142
174970
181652
141677
76959
27431
1685
-57896
-133583
-198804
-246482
-274579
-305816
-383954
-485829
-546413
-537529
-453719
-360927
-284551
-191096
-55064
102354
256654
392079
510788
623611
704115
684050
510017
233673
-33847
-241125
-373964
-440179
-456024
-398051
-252629
-51619
153430
323886
446364
491308
447524
321191
140180
-47974
-197332
-290261
-334626
-340076
-313952
-276037
-228347
-185639
-149997
-110834
-51002
21372
107364
210484
325374
435141
527406
599070
641546
641659
598015
512982
397688
259494
122368
801
-99361
-183636
-247994
-290007
-315067
-308866
-266294
-202241
-124890
-44559
12107
24661
8024
-2752
-12556
-41474
-88827
-139303
-162107
-161675
-168534
-183494
-196437
-191174
-190464
-189444
-180614
-151417
-71407
40731
153036
242481
318589
394564
457401
474839
426743
321255
203091
107530
36706
-40036
-118381
-195951
-278556
-362704
-437027
-485610
-508823
-517491
-522505
-521631
-503157
-468178
-424137
-388277
-366373
-354879
-358529
-349070
-305840
-224188
-116450
-16491
60976
106111
79759
872
-86641
-135126
-133934
-111837
-87179
-60343
-21440
9011
27150
44481
61383
75829
63074
-11344
-107689
-131051
-13746
211106
447878
590533
552059
386333
205937
65950
-57757
-196391
-312099
-348572
-283216
-150651
9496
142576
209591
202371
160850
119822
93561
85496
86999
93027
96636
118341
156770
181153
189208
182705
156531
126903
135183
166702
193682
205895
214426
237815
267528
290096
296664
281387
238349
178626
143599
203439
341789
336361
126961
-111079
-302369
-449587
-497818
-445400
-359817
-289477
-240249
-188126
-115951
-19990
91176
212915
325276
412734
457399
446772
389864
292833
164636
28275
-97525
-205815
-283871
-335556
-364206
-371979
-366412
-353916
-346904
-343981
-343737
-339705
-332150
-308559
-263758
-220464
-175592
-122003
-56668
16751
93076
168038
233837
289189
331271
344186
323749
273336
201501
124521
45556
-23556
-70297
-94377
-114684
-137908
-163629
-191271
-211141
-212750
-198709
-174972
-149712
-127812
-114397
-97774
-62634
-17746
29739
66365
89279
104491
105869
102877
97498
97496
95163
86305
80699
82216
86666
82879
69471
55793
43248
26416
1647
-24671
-48113
-62182
-62896
-54105
-46562
-40761
-36690
-31591
-18585
10936
52696
104694
165817
222849
266634
276736
258679
218808
172599
135884
104175
67643
29826
-3222
-32319
-58669
-76744
-92147
-112570
-142073
-180272
-212089
-232880
-234105
-219199
-212378
-215693
-229401
-245296
-263668
-276302
-278356
-270564
-242418
-211257
-164898
-106861
-41562
31302
107103
181524
254448
317028
358029
362516
346181
323731
301306
282714
267113
260661
257045
247008
239005
233732
205526
138694
43671
-53094
-133036
-194566
-226697
-258254
-322466
-404661
-454494
-442379
-374176
-291276
-249023
-233239
-194124
-117897
-23781
48926
95585
153918
246431
314213
298901
187626
-6445
-218357
-381561
-457352
-441024
-344179
-180624
12233
185640
307165
363801
364304
331291
266282
169309
56184
-51651
-129634
-171782
-163277
-120951
-62222
-9919
17994
24383
6448
-19682
-44881
-51531
-40944
-26449
-9441
351
-1276
-14439
-32489
-45671
-67497
-104736
-145108
-170512
-175748
-157021
-119916
-66816
-14416
32139
67299
89228
103076
111272
116437
121788
127498
134912
143708
140635
138047
151871
173463
194159
202116
206659
206631
197331
173824
141929
114818
85771
48582
-4721
-60356
-114397
-169420
-215310
-246153
-259671
-273801
-293772
-319818
-345647
-355719
-336784
-306484
-276676
-252577
-230765
-208502
-179416
-151984
-145443
-164530
-199481
-225124
-231563
-221259
-186317
-143484
-100062
-63321
-38080
-22678
-10652
-3072
2795
-5952
-20452
-29889
-14832
16261
47493
78274
103613
121344
143470
151083
140204
119166
89191
37467
-50096
-141109
-149065
-51467
83933
200581
243189
152426
-28103
-199955
-302288
-344878
-342131
-295688
-199756
-57963
106939
257479
359788
395853
363971
311631
264274
232334
211890
197246
177118
154629
136501
131206
136007
148078
159053
149121
119929
82018
40918
-5102
-53154
-93764
-122527
-139413
-138377
-128148
-112537
-108304
-105984
-118219
-141939
-176028
-209369
-226793
-222096
-187102
-137866
-100059
-75766
-70268
-76379
-93467
-114464
-134350
-147958
-152536
-147019
-127623
-90027
-62452
-44772
-26402
-16168
-13967
-15435
-21474
-31694
-35546
-31200
-16623
-563
8441
22940
46224
73726
113561
158539
193293
213235
228916
240141
250701
251034
241568
238856
244541
246891
243291
235951
224988
207720
184028
151238
111476
63428
8456
-40211
-69812
-65527
-39239
-12003
4118
12321
12276
11003
13934
15903
12678
14121
27468
45449
56499
45391
26568
7549
-10014
-31275
-66110
-110679
-160121
-209912
-250324
-279388
-295081
-297072
-286627
-267335
-234726
-176791
-107869
-41982
20575
72018
109838
136749
152766
161697
166511
157893
119262
67231
9599
-55306
-125770
-190698
-229623
-238713
-216509
-174092
-117902
-55021
12364
82557
141660
176794
188893
192147
190923
195771
195655
181818
161245
141985
124130
105367
87764
64101
38549
12696
-12295
-26556
-28260
-25221
-6927
25525
58922
77570
77098
61418
34502
4773
-21473
-41082
-61759
-91202
-127937
-171493
-202749
-224666
-258241
-232180
-179901
-214624
-226433
-213463
-238395
-301537
-317488
-255052
-157942
-76921
-12833
51254
118538
173200
202193
206988
190133
158981
114457
73999
44944
31368
41112
72143
121869
163378
162641
124283
82926
76987
91441
86973
33852
-44007
-86001
-63957
-6496
53240
106113
157169
230218
317474
351531
294021
178586
21951
-139066
-272336
-373034
-416350
-406878
-340522
-224646
-79129
72063
187504
243244
215688
133556
45576
-24012
-65875
-88796
-88502
-71859
-44677
-20407
-13333
-26859
-55807
-87276
-103555
-98551
-70216
-23471
21726
55962
68009
53397
20916
-25207
-75996
-125871
-164941
-190861
-199691
-202682
-199862
-187174
-147879
-102619
-53321
-4737
34755
60846
72504
69712
52078
27411
2028
-24042
-56231
-90042
-118487
-123491
-113051
-95013
-76057
-62398
-43106
-17811
20131
69038
118360
162844
200786
225663
238567
242421
233670
205515
170462
140174
103850
62032
16390
-35312
-75629
-87649
-78685
-55200
-28282
-6379
6909
16904
25551
42534
62658
69578
64029
47510
24326
4152
-8637
-15442
-8847
401
-7036
-19067
-29612
-30018
-22097
4083
39013
68992
84073
78854
59519
25743
-14992
-53820
-82711
-102392
-132170
-194325
-264585
-243236
-111844
79313
270541
371995
313041
156159
16207
-69848
-131464
-187371
-208712
-183121
-117019
-26472
59045
110809
116079
91838
53901
6643
-70711
-167189
-246038
-292857
-296848
-256190
-182589
-98643
-24491
43351
101927
147440
175030
187524
188097
182567
175619
163049
147289
129476
124510
121329
114033
96588
78411
65361
53699
54121
60548
73181
83058
82918
77465
68983
63609
59364
50365
42757
51797
76735
103424
118744
119926
103941
86226
68305
47221
19909
-10324
-43126
-73662
-101399
-118155
-117759
-100409
-78844
-63377
-61407
-65299
-59458
-51921
-37113
-16601
-1336
9412
4058
-6879
-22847
-40736
-57529
-64671
-52932
-26410
12699
51900
81156
99313
110011
109959
102428
89341
81724
76142
67667
45713
14075
-24326
-58156
-82138
-93677
-97984
-94009
-97269
-101822
-98694
-92826
-80561
-56335
-29919
-11766
-2552
1158
-4992
-13834
-22154
-29252
-26196
-32204
-40491
-48804
-51957
-46971
-30766
-3330
27293
63396
94420
118247
131211
122146
98941
75534
56429
34977
14314
-10924
-35968
-59979
-71136
-61814
-34247
-2182
29741
50663
57604
60996
54052
40458
23327
8480
-16091
-47749
-81901
-107410
-115690
-116447
-114362
-109595
-104519
-92387
-82839
-72662
-54961
-33821
-15510
-3109
19169
52515
89074
121468
139029
146228
138463
127093
118644
100149
72136
42711
19239
-261
-26037
-43982
-41099
-22911
2483
32698
60476
76791
79979
66509
36264
-11432
-69232
-127936
-161891
-158044
-130590
-108359
-102498
-109173
-108562
-104510
-104982
-120275
-162342
-210710
-239399
-248055
-218208
-143770
-49570
59326
193228
344503
462009
494008
449867
352536
191186
10110
-111512
-126904
-47312
79180
215198
308715
342225
322901
259685
158514
36432
-86170
-174504
-218448
-233627
-236227
-232241
-228416
-237630
-258487
-275997
-282253
-279752
-265797
-235842
-196887
-159708
-128665
-105984
-86808
-71592
-66889
-64256
-61161
-48546
-38881
-23161
-4505
20093
60708
108490
147926
180649
205721
223936
232691
232190
227431
225481
215673
197848
184692
172899
160549
137853
101115
66921
47461
-116487
-117662
-101825
-77105
-55655
-45102
-37599
-33923
-27337
-13791
3318
11891
16392
13800
7271
6451
10305
13279
18898
29554
42009
53509
51408
43310
35303
28904
26273
22859
19347
18109
26463
45163
76022
106976
114403
101243
77889
46933
13293
-17794
-52090
-85095
-101726
-115412
-121306
-122071
-114212
-98276
-68647
-50296
-72109
-108345
-107422
2387
188723
408466
580413
611567
472721
242819
30024
-137238
-266149
-346712
-348736
-256871
-96876
76655
222143
306231
327068
300072
238889
150809
47913
-50361
-126409
-187616
-261406
-365117
-434421
-441364
-390889
-296287
-182796
-68502
22282
79916
102151
112474
121321
138021
156438
172030
179879
179948
175925
164689
154998
150839
148786
142219
130394
114556
87842
68048
51881
50381
56560
65268
72078
74676
78080
82167
87986
92566
100326
115582
133658
148691
156595
155824
138247
110996
74263
35441
-6688
-45732
-77261
-103377
-130742
-168667
-206236
-236516
-246595
-236148
-206408
-174034
-141457
-115697
-89532
-65489
-47486
-35923
-30464
-25974
-14875
6893
31867
64547
98536
119300
124121
120508
110178
95659
79782
59359
36333
16401
529
-11513
-22020
-35939
-51680
-55268
-53830
-54932
-51792
-42947
-31231
-11677
9866
28678
31223
28081
25407
27872
29628
22601
10003
-1689
5449
20571
28367
32018
35609
45315
63308
87275
127466
177368
218876
236557
234704
219301
187776
153653
128576
113629
95578
73412
49379
29263
10845
-11227
-33796
-51670
-52034
-48607
-50266
-67432
-103161
-150799
-198434
-242874
-295765
-362646
-417084
-425963
-386070
-320072
-251736
-191267
-138549
-69722
26911
124690
183619
197293
169088
118647
69541
40093
39583
79662
166118
292435
405000
455893
431159
364464
298112
268018
278038
289775
295401
285920
252581
199534
152064
110871
71309
30829
-2141
-26756
-72682
-165003
-276996
-356486
-384950
-365779
-345337
-348530
-350096
-317191
-224954
-73946
121018
334231
538383
682484
722126
616538
382328
94236
-165349
-359534
-465666
-444592
-302356
-92976
116529
274995
387063
475314
541543
559307
513286
417813
295449
177103
83296
14039
-34201
-71596
-106504
-145841
-199407
-262766
-323945
-373142
-402381
-416374
-415864
-395966
-350876
-293296
-229649
-173058
-129943
-109709
-105559
-105321
-104515
-103737
-103768
-99971
-88461
-66367
-28311
20566
80081
141014
195601
224502
214391
171359
117194
77789
48704
19158
-2563
-16796
-35790
-56652
-63474
-61355
-57157
-49666
-42924
-38641
-29975
-23807
-18979
-11901
-10762
-17853
-27121
-32706
-28788
-11179
17325
50564
89317
131421
174104
210819
232718
239683
235031
224413
216989
214244
208196
195599
178130
154642
135503
119758
107588
93078
76384
43094
5472
-33391
-69509
-93682
-109268
-116957
-118505
-118551
-120514
-127404
-116762
-98262
-73227
-53297
-43481
-46972
-51977
-60680
-61392
-54294
-46188
-45909
-69126
-148170
-260596
-310385
-217436
-1024
248621
426811
430274
261069
51546
-100184
-194071
-267981
-318416
-306519
-223938
-96189
41415
160844
237210
261534
212663
102633
-7185
-84619
-111547
-99475
-62956
-16949
24118
66859
108338
153308
192711
215318
206652
163013
89391
3276
-74652
-129188
-152783
-152898
-133215
-110314
-81591
-66256
-52722
-31926
-7256
30926
75120
117480
150596
174952
199559
218041
241121
258226
259134
243106
210046
180118
156976
137158
115688
90844
69173
40609
12253
-19297
-50218
-65702
-71751
-64446
-60234
-54240
-52111
-52421
-44840
-25803
-8803
4739
12844
16181
14086
6786
-2077
-19154
-32650
-44371
-52330
-50005
-36105
-14691
5747
21328
23219
11199
-10237
-37621
-61544
-80010
-81652
-74457
-68959
-63547
-53701
-37386
-15334
9045
25643
45407
58422
73794
87846
99734
109168
112598
107345
97034
83058
62006
39614
12488
-10153
-29608
-44024
-47157
-41468
-26661
-6559
18311
34328
44292
46875
30404
-1318
-40218
-80304
-116404
-151004
-172099
-190302
-203346
-205901
-196477
-161454
-109451
-51047
4169
57131
112747
167218
213190
249177
278670
290331
273506
226670
168182
105900
52701
3708
-34752
-65381
-87401
-104746
-120959
-138176
-154649
-164121
-159999
-135948
-101005
-70277
-48150
-30472
-15572
-3412
-2137
-1818
-643
-1174
-4247
-12059
-19352
-31784
-40337
-40223
-21814
3754
26596
44953
70401
104941
142452
173812
202200
227084
247047
260299
271118
277141
270989
251486
215728
159174
88788
12153
-48711
-102339
-192721
-324302
-451642
-522003
-489499
-376200
-248413
-111594
67161
272281
450118
565820
636689
703789
773808
802611
725104
522303
230406
-67868
-318414
-504861
-644426
-728172
-712569
-583997
-372587
-126719
104346
268484
344897
326645
239043
108366
-25142
-125728
-180029
-186402
-168440
-137905
-100069
-67714
-50854
-55524
-64802
-65531
-55008
-30928
8176
51061
90598
113104
115229
97245
75137
45163
22431
14786
16481
25319
40305
57864
71058
72058
63095
48608
34874
28801
31139
43938
64299
89207
109633
121043
119524
109490
95689
81987
68509
53595
35687
9236
-10287
-17859
-25688
-37424
-53164
-64202
-71636
-77799
-87476
-100787
-121669
-144704
-164651
-174259
-178160
-173592
-164026
-148769
-118549
-74026
-24461
17923
49492
71098
76845
73768
65496
61313
63914
73294
84043
87784
91646
90628
85034
80998
74198
64136
55649
45604
35791
26519
18212
5133
-7025
-16816
-44857
-72639
-77004
-58679
-21094
24916
70062
96044
109256
109376
102641
88421
74107
63655
64345
64498
36706
-57116
-196618
-242439
-104824
133532
382184
514646
418001
179717
-48181
-201938
-303452
-384860
-430960
-429417
-379420
-304547
-210171
-106887
-6238
79876
137294
168754
174049
170838
166244
178034
218602
297228
385018
406853
343780
253918
171994
104579
40929
-17276
-72662
-126946
-179406
-214006
-231221
-224377
-202435
-161858
-116360
-71448
-38755
-15450
5190
29824
49101
63764
74943
78206
72573
54110
24258
-9082
-41001
-67357
-84451
-85602
-73019
-43729
-5270
31699
56673
67008
61606
51996
44765
42003
41065
41901
44489
54268
67831
84936
96173
103455
104125
109648
117569
121493
119876
117668
116431
110758
102951
94437
80484
61831
36473
557
-48989
-98729
-131217
-144954
-136922
-120080
-99988
-81717
-78630
-87747
-91529
-92437
-78580
-59451
-25690
17670
61593
102723
128353
143921
143773
130271
98961
56224
9733
-30246
-58889
-74614
-87161
-92077
-86925
-80316
-84432
-95385
-104324
-115005
-122932
-130886
-133694
-135152
-143357
-148357
-143013
-123783
-101294
-73705
-46650
-14152
21754
51306
68830
78510
81278
80283
83225
87473
96448
114894
142019
163625
181363
194036
199378
195713
185320
175874
170013
169544
172091
170464
161765
136788
96658
40881
-18737
-70259
-105119
-124309
-129434
-124122
-119721
-120000
-124399
-127084
-117381
-106122
-91197
-79640
-74299
-72394
-70418
-72472
-75425
-87460
-104721
-120326
-129548
-129434
-122156
-101300
-70169
-35482
-10849
11516
38939
60464
84324
113519
146603
175355
200012
218761
225478
226535
222453
209625
190238
160274
105493
31329
-45573
-98359
-152961
-243339
-324786
-350877
-291143
-161569
-45494
7193
41881
113554
209291
291061
335896
355824
368896
371079
358585
306979
180125
16721
-109073
-214792
-310734
-361282
-344946
-276101
-171006
-33451
122491
262611
349439
370734
327252
238713
122360
1108
-101843
-177026
-214769
-221667
-212914
-200626
-203652
-233176
-280328
-323526
-333012
-292271
-224234
-156895
-104387
-62632
-27712
7906
40233
46906
25546
1193
-8223
2062
29690
55186
57584
25233
-24017
-63105
-81196
-80924
-73354
-59786
-38766
-21591
-2918
17537
33256
51963
73254
91385
95618
91804
86663
94519
111871
119019
115284
106709
84061
62870
47929
42988
45118
51493
60664
61289
54353
50603
43230
32274
16336
4724
-2309
-11144
-20487
-38354
-49326
-49665
-45960
-39411
-22544
5973
32237
56731
76271
86109
83146
67118
48559
43126
47418
50363
45262
35684
24140
7483
-7240
-25869
-40875
-54895
-75161
-89415
-94676
-87267
-71564
-56661
-46108
-43625
-50694
-66206
-86498
-105782
-128182
-140161
-143226
-145303
-154637
-204466
-310398
-409236
-356361
-122291
182309
431103
495891
367674
183186
38884
-51782
-122151
-200942
-256476
-252577
-183760
-63436
61799
145355
181853
186076
170795
144323
109939
80196
60619
45914
39993
45732
48117
49223
50783
57038
67956
85700
97471
113721
126710
139914
147988
149677
150653
155104
159986
159015
146494
123029
88230
47033
5888
-32649
-65540
-85497
-83019
-62334
-24114
10328
32954
46726
47081
36118
23161
9163
-6649
-24362
-41902
-56014
-67677
-72136
-65311
-51264
-33899
-22222
-15416
-16176
-15642
-18212
-21107
-23783
-27113
-33048
-42355
-53885
-62052
-56890
-28386
3756
28793
53701
73821
91532
94145
83574
63297
42293
28692
12924
-3853
-22787
-40859
-58861
-79581
-98471
-116357
-130653
-132664
-126039
-114847
-106312
-89765
-67202
-42902
-22019
649
24816
47230
65429
76133
79877
77382
71138
61845
53776
48556
47451
48478
46365
37802
20198
-4926
-34285
-63177
-96321
-125516
-146596
-156118
-156830
-148426
-131343
-113022
-90504
-55673
-15843
23068
53741
64498
56021
42503
26752
7111
-15816
-43550
-68553
-78198
-80669
-77451
-71041
-55125
-22281
13941
35493
41894
54038
77299
105871
134037
157346
166700
165816
156628
136166
107414
68891
31351
-5127
-38609
-60352
-66315
-54437
-38702
-33101
-36777
-44971
-45027
-39442
-29582
-30183
-38414
-45079
-53027
-61917
-71149
-77499
-69157
-58446
-45527
-39736
-46026
-63961
-83613
-93293
-75179
-36614
-18076
-40508
-74397
-89926
-81944
-68504
-74580
-94045
-112278
-121369
-119515
-94099
-26012
77756
185704
284511
378289
456158
463308
379406
218018
50661
-70939
-163963
-207394
-197209
-134619
-31746
76149
151277
176229
155653
101976
36764
-25231
-90649
-152704
-205483
-251072
-278958
-296572
-307476
-312399
-317911
-330846
-340678
-338697
-324528
-301827
-264433
-219916
-174999
-133944
-112582
-107887
-105875
-93179
-67594
-22172
39737
96568
148311
186219
219084
243339
261718
271529
279915
295046
314962
334418
348569
357466
351478
333871
310924
287183
256941
218761
173384
126394
81376
44433
12611
-11417
-34559
-58458
-74834
-84111
-82946
-79888
-83792
-104705
-139175
-177311
-208651
-218042
-204099
-183074
-153922
-125967
-103290
-85969
-67419
-52045
-42119
-35445
-29053
-27524
-27276
-23711
-13491
259
14551
29415
43501
52011
57390
54234
49238
41064
40211
45962
56250
68326
78568
87691
88565
84341
70746
50913
34163
21521
14178
14095
18167
30535
48346
68353
72486
29215
-65267
-130480
-30274
240600
573324
822028
855484
658651
379791
138526
-46806
-200116
-310051
-343303
-281723
-149180
6253
132908
196806
196574
144715
66041
-19858
-110814
-221779
-350693
-444052
-453701
-375365
-248328
-116394
-3992
67472
103679
115680
116133
117806
122062
126638
128636
127174
123385
119993
122624
126324
123316
103570
70018
31751
-6730
-33987
-43228
-40511
-29876
-19988
-13574
-14501
-27094
-45526
-69941
-88672
-95059
-96036
-86708
-72564
-48936
-23572
606
24897
52364
81463
110843
140723
164655
181174
182846
176871
161835
143823
126880
113491
108481
101576
89285
74218
54836
34303
8003
-17501
-43112
-61907
-70639
-72334
-67934
-61296
-58277
-55391
-51527
-41799
-27037
-15064
-6134
-76
-1554
-12378
-31677
-53502
-72364
-77899
-65414
-33216
7423
42682
66113
72958
67460
54252
42984
35914
33096
37839
36791
34537
32150
23543
11231
371
-6749
-12187
-15610
-17675
-24657
-34453
-43734
-49730
-47752
-43108
-35670
-28542
-19895
-5268
11210
25655
32926
35331
27635
12634
-3652
-19761
-27905
-33176
-39602
-45870
-53140
-66512
-83612
-93609
-97270
-93446
-82109
-68049
-44711
-18647
14377
42353
69434
92262
110943
121151
116841
105616
95572
92586
91547
82855
70694
57797
45451
37524
38571
46093
48829
33283
12464
1889
2866
7590
11247
20455
22387
24707
32519
44876
68801
101478
134210
160824
182032
195408
194827
181114
153549
115851
73753
42762
23433
-6554
-57151
-111473
-158427
-178573
-179164
-194408
-216654
-239005
-252291
-232948
-163695
-58887
73482
247156
434776
559368
561939
438196
237609
8099
-217266
-402784
-492307
-461480
-339272
-184878
-61612
22889
75365
104298
113756
104958
72996
21877
-32473
-69936
-76245
-51736
-12314
18072
32318
27413
8313
-17602
-40150
-54713
-62403
-59245
-47816
-35971
-40500
-62567
-89201
-119709
-139687
-149136
-141140
-126223
-111595
-89146
-59837
-30138
-10372
4621
23011
50085
88126
123176
148856
159583
165226
167749
167130
157192
140828
116464
92758
70401
57973
50568
43980
45588
47401
52474
60427
71509
91132
107037
115260
108246
95324
82810
75471
75273
71052
62492
51301
31908
13201
1288
-3865
2220
13317
30267
38456
39603
35973
33171
27384
18128
8386
-2601
-15716
-16937
-13873
-5413
3019
11333
19247
18827
20118
20237
23056
26907
31780
38961
44653
44293
30009
1642
-43788
-92454
-109665
-61437
17584
85714
116048
110128
86582
52180
-14100
-128598
-192136
-96324
136520
393926
588810
628466
479454
245636
48904
-83519
-188554
-273837
-288915
-206836
-56696
105576
220708
259175
229976
162888
85467
3363
-103282
-253475
-394792
-475548
-486069
-433467
-339567
-235152
-142251
-70394
-21099
12648
36439
54466
71543
85263
98299
114686
133667
148402
162419
171771
179678
180671
176334
167491
162093
158010
152350
151097
154746
157774
170328
185586
203640
216202
216643
205278
185814
163304
131399
102417
75086
51902
28831
9891
129
-5607
-8538
-8846
-4003
7278
16221
21153
14954
-1263
-21451
-35983
-40156
-35191
-30304
-28606
-30349
-32319
-34091
-33992
-33836
-33759
-32754
-31987
-28502
-16904
-11458
-15568
-23647
-35556
-51249
-67097
-77655
-86551
-89771
-85791
-72684
-44832
-7394
33039
71044
99126
109533
101889
80244
51824
23772
339
-17219
-27642
-26866
-20647
-8217
5126
18317
23405
24110
21659
21344
24632
32845
49441
73946
96399
114231
122129
118787
110314
104415
102800
103341
115715
135806
157388
161558
142141
95913
31345
-29339
-82971
-121122
-145862
-164335
-172268
-161596
-132479
-100287
-71771
-48962
-30703
-14593
-4052
2996
6893
5435
4459
-4574
-21839
-42103
-67169
-88659
-104234
-107857
-101366
-91396
-72689
-54163
-23552
3909
24494
34218
31842
29282
25372
19404
7894
-8252
-22439
-37885
-48521
-55107
-52690
-37662
-9302
17218
45653
72625
104322
126931
149359
174504
201818
225495
234710
226161
192082
146778
93433
48260
24563
-10116
-85288
-173620
-234919
-227474
-163027
-103412
-56267
5027
93110
174336
240044
298366
358957
440183
546089
599223
525973
337699
109668
-66736
-184785
-302402
-427907
-502511
-473124
-348548
-172093
-1661
112144
147925
119236
43351
-62955
-175021
-270236
-334534
-349968
-321809
-267626
-218429
-191736
-189165
-212781
-241509
-257329
-248985
-216222
-159477
-87989
-12134
52989
99763
127322
140661
137106
128382
124511
121414
118981
125824
142563
167761
197038
218918
242053
261458
273653
270285
251013
226138
203071
183755
166514
139691
108168
71468
33262
-13298
-69066
-126070
-171104
-205306
-230972
-253569
-276946
-294283
-290157
-277409
-254947
-216979
-176101
-135654
-102151
-75724
-43838
-12559
15922
39339
72147
113998
157209
195415
214883
225059
221656
218324
216407
221838
229611
234618
231394
212939
186346
161348
138695
113533
94533
72409
50718
23207
-6422
-35250
-55420
-65068
-66064
-53925
-40177
-22017
5609
38520
86401
152009
227098
288774
313327
294718
247254
190215
129621
64491
-4223
-73446
-106007
-91713
-54779
-31899
-104938
-261128
-333091
-221238
-15346
168199
228339
107577
-86899
-242446
-326103
-375870
-421020
-405565
-324891
-231139
-157106
-121252
-89295
-43409
9983
48457
44882
-16666
-149104
-337159
-512133
-601131
-584081
-446391
-235282
-45497
74325
128977
145067
155810
169403
181646
189029
196119
209301
214108
205622
203820
208511
192844
167309
158610
182327
233475
316741
390449
410532
361731
258268
132778
25426
-68482
-164938
-253215
-304263
-305756
-259532
-199377
-142526
-91067
-39613
-2401
12030
9702
-45790
-157364
-210018
-169029
-98095
-49575
-28084
-5142
52369
134197
215178
273849
290563
273266
242840
218302
188836
150041
97609
40848
-6705
-34489
-45811
-53959
-66605
-94259
-125760
-143953
-150918
-141821
-119386
-91222
-66862
-42904
-26841
-17207
-9411
1854
17280
28658
44124
58733
66806
65739
71445
91579
126858
168267
200312
216394
215150
195760
167581
137363
113529
94888
78232
60074
44118
18246
-20319
-61214
-95387
-117337
-126524
-122775
-112977
-102262
-86857
-69818
-55688
-48762
-41512
-34468
-24413
-13371
-7295
-4165
-7671
-18332
-32004
-48432
-64037
-68461
-55226
-28425
6274
48568
90074
124375
143071
137477
111879
75402
32941
-16154
-62754
-99246
-126782
-146972
-161969
-171441
-175377
-171699
-160992
-145506
-127744
-109139
-89966
-76589
-75756
-83534
-91100
-96742
-97213
-96840
-96362
-91289
-83481
-69842
-49581
-26786
5713
36037
67336
96705
124484
140984
146256
153148
161270
173483
193832
217973
241321
257003
259628
258483
250866
236432
221134
197898
157049
95658
25238
-39967
-82835
-136747
-237841
-353539
-443856
-462109
-404174
-331826
-276191
-204382
-84582
54783
167558
247189
308002
371631
437631
473671
431539
293482
131497
4904
-103027
-216036
-322189
-397176
-428028
-391367
-274874
-107916
61996
182035
236765
232984
173255
71388
-35261
-120859
-172175
-180355
-149829
-100927
-50040
703
29241
29633
-5103
-49639
-94157
-152872
-195254
-189427
-148073
-95544
-47672
-16133
-990
-5807
-20604
-40959
-66304
-86762
-96892
-92964
-76708
-60190
-47136
-31391
-16832
144
21111
34947
48217
57603
66866
79848
94299
105947
108821
102579
89022
70792
37310
-16249
-51582
-49881
-38303
-31557
-38286
-62898
-90382
-90177
-64871
-42629
-41508
-47842
-43524
-32555
-20922
-22939
-39000
-64021
-88879
-99032
-100067
-93105
-70331
-53828
-36059
-12379
14456
39107
54363
71075
80935
88839
100236
105326
105099
91031
80691
87554
107909
113672
92001
57388
24524
462
-7394
-5681
4461
20152
29951
22439
6826
-3624
-8261
-7879
-479
8902
20591
40388
58334
73131
77861
66068
32210
-15829
-84780
-210719
-386502
-490398
-375576
-110507
165183
321100
256664
73027
-85250
-174180
-250014
-363081
-459941
-439441
-295502
-87559
95896
206689
242318
221589
180379
131016
88375
60251
49338
48193
49222
60639
77731
93839
114093
142683
178220
203403
203721
193154
176364
161643
148942
137841
124531
103308
74656
42533
9883
-15253
-35555
-49614
-52545
-43606
-24190
4288
31343
57725
85648
112957
133383
145854
151019
152729
148261
139754
119066
94800
63296
32193
5394
-13505
-22152
-27809
-36137
-47092
-52135
-51721
-51347
-44624
-35362
-31518
-26521
-28374
-23322
-20746
-19739
-20172
-23859
-26277
-31469
-30399
-24984
-15658
4161
22754
44509
67035
80781
85384
67979
35461
5867
-13889
-26486
-36647
-42522
-51889
-66465
-71886
-80937
-78018
-59876
-31520
-1350
24574
52749
81256
102957
117675
118479
107906
81634
53563
25063
-6587
-38169
-77343
-108247
-125349
-118880
-93089
-58077
-18039
14385
37129
54360
58757
58369
57838
56104
58984
61336
65428
69861
77398
91416
102929
101984
83874
56264
28098
6039
-379
4891
19227
26518
26608
24899
15688
4714
-8399
-21314
-35481
-49038
-61309
-70531
-73179
-76216
-83910
-90551
-95630
-95827
-98168
-104297
-109883
-112911
-104880
-85367
-66767
-51342
-31576
-4478
19353
46609
68922
88946
99799
101327
90596
73650
53520
38301
29448
25882
26126
29894
28574
20853
17991
12771
1702
-4193
-3899
3331
11763
26886
39622
54261
71633
80776
88321
91933
90876
82385
69640
59054
42091
19383
-12642
-35457
-46110
-51011
-71206
-113842
-159128
-177489
-174189
-148260
-129848
-124124
-119018
-99826
-69036
-38623
245
47703
110855
199354
294618
346339
354428
329776
244276
102349
-28082
-96452
-128279
-158922
-185431
-165582
-92539
15866
128347
195016
198393
153533
73665
-20793
-118033
-203142
-254270
-261349
-235338
-186316
-127115
-78461
-48323
-40362
-44840
-48662
-49598
-43431
-29238
-5871
8283
10894
3873
-18011
-52539
-92033
-133976
-171471
-198922
-216164
-217006
-191841
-146641
-91416
-38412
5179
35944
55960
66200
76254
77212
73806
71406
60656
42326
33791
28053
24808
32717
65186
112391
177295
229553
254966
257932
244000
223251
194855
157375
115682
73143
31524
-9080
-37021
-56749
-67946
-63711
-54839
-30196
8366
53474
93792
119950
122044
111163
94176
81425
61841
43743
24031
3864
-19011
-36897
-38511
-20846
23374
79283
105868
98317
70713
36013
1256
-23499
-32881
-31222
-21857
-17164
-14889
-13252
-15059
-22558
-37372
-51324
-60000
-62771
-55712
-42148
-8754
39316
92736
147792
179397
148885
21831
-124214
-111771
86016
365861
586450
618250
450077
218563
28866
-117053
-242642
-338654
-367146
-300367
-155696
15038
147916
207866
207888
158451
41705
-123080
-274536
-344021
-313116
-212040
-78966
45243
126856
174286
207111
221181
215581
190273
149536
100291
52074
12897
-12159
-19802
-22278
-24322
-32273
-46282
-56578
-58109
-54104
-42357
-27549
-15910
-3699
8806
24676
33675
37324
32261
31554
41025
51839
66398
85608
113268
142873
167244
188018
206678
218465
225896
226379
216384
192636
163072
130946
97984
68646
36650
5989
-27850
-62740
-99790
-134406
-163108
-185457
-202922
-214556
-213564
-199926
-181406
-160372
-141752
-135419
-140770
-150486
-158657
-164147
-159832
-142781
-116270
-82879
-39250
11249
61834
107433
139909
164074
180262
192023
191098
178991
159228
135743
107738
83483
67051
55856
45719
36907
30030
20451
8449
-3647
-13670
-18319
-20720
-21784
-17719
-7496
2283
12706
23705
31831
33088
37619
40003
45708
54526
63079
77827
97516
116245
128935
135191
131346
121029
105946
93046
93518
106970
121630
133135
125591
104090
73491
38392
3486
-29832
-60811
-94654
-123936
-149579
-170859
-181571
-184594
-169939
-142555
-118461
-100632
-89981
-85868
-79119
-72740
-57939
-40315
-27258
-20162
-15249
-4896
26
6773
17104
25374
37933
46458
53128
52096
41629
30037
16021
5174
-9371
-24596
-33494
-29509
-17979
-607
20116
42451
65842
92388
120604
143698
160375
174076
185946
187651
185418
180561
179712
175823
166874
144377
104052
64704
39446
32228
16908
-25034
-88407
-149052
-184854
-191819
-197682
-211704
-214777
-195494
-168896
-133499
-60784
54096
194573
328147
442093
484024
420088
272308
76256
-131256
-317127
-437964
-459346
-398173
-281529
-152682
-31192
79359
177703
256258
303501
310198
271173
193184
98265
7661
-59157
-105532
-135437
-153614
-166261
-175468
-177461
-175109
-161086
-141716
-115292
-75629
-31473
10499
32192
35695
17897
-7666
-38026
-68568
-94381
-115505
-127827
-133332
-120464
-83363
-29920
31774
97144
157312
204140
236308
253530
255279
247198
233577
218870
204351
179623
146864
110417
70543
28224
-12784
-46348
-73502
-91617
-102907
-113804
-123016
-137942
-146137
-154282
-151831
-141548
-131599
-120723
-111879
-97105
-86877
-80611
-68631
-55832
-38332
-17161
5891
28345
49175
77665
101906
123393
131176
127140
112359
93911
74056
62056
56304
64364
82516
106278
128936
137487
135671
120219
100378
75819
53093
37208
22253
13194
7334
338
-5817
-11199
-17796
-21834
-19787
-14967
-11246
-1026
11792
25697
36651
40084
25790
-41812
-166197
-242540
-140886
88434
327278
486589
459052
264658
47121
-89228
-154756
-223928
-286262
-289729
-222581
-103089
21700
106015
125839
96361
50868
-23345
-153164
-281674
-360182
-354746
-281563
-170992
-49812
52104
120444
151220
158364
159919
158884
152910
138141
126999
114649
107961
103275
97069
93618
92373
87219
78922
70173
62413
57927
61258
64347
67344
64766
58042
45557
29711
14304
1039
-9455
-12899
-7522
2323
23494
50120
70190
84957
93445
94713
90379
83551
73862
67849
68317
60231
39788
31655
41520
60621
77174
88240
102885
122879
139975
139354
119782
93731
70020
49899
32275
11121
-13436
-42984
-68809
-92282
-108204
-114400
-112986
-114559
-113241
-113356
-116566
-119764
-119091
-110583
-98021
-82109
-66307
-53646
-48643
-54694
-61202
-71020
-75439
-70819
-55574
-37019
-21864
-11195
-689
8775
16030
23073
28897
31111
26564
20307
17099
20479
30779
36898
33019
18046
-3523
-27598
-53764
-76317
-85974
-87385
-85544
-81842
-71609
-59306
-56882
-54058
-47813
-33396
-8864
21358
52854
80481
103894
115026
120859
123352
115894
100116
90003
84019
72888
58066
41870
17047
-15511
-43861
-61496
-61733
-52732
-39865
-21787
-5254
6431
11230
17871
31221
43868
59587
72140
73888
69746
67539
63233
59941
65916
77676
87312
93773
97291
91848
81523
67633
55051
50521
38650
20260
-5395
-32791
-55192
-68984
-72317
-67937
-63013
-67611
-83627
-99261
-113170
-120004
-120761
-113517
-89923
-51492
-8117
38601
82494
113781
138389
163754
182520
200902
211597
204064
183213
152099
123063
105061
88548
72422
28574
-60092
-176794
-274283
-274071
-198460
-113281
-57929
-3756
83837
179351
251424
294890
341968
409337
488115
510554
416983
242493
54433
-112158
-249787
-361609
-441520
-480716
-461800
-368777
-211449
-25847
140944
257787
310008
294405
226798
129308
25160
-74582
-148276
-174921
-151051
-93706
-24804
28017
45559
37413
13941
-16100
-37396
-49832
-53460
-50071
-43799
-35872
-34623
-36402
-40356
-44322
-51896
-63997
-83889
-108026
-130542
-139204
-138662
-136744
-141402
-148469
-150308
-145387
-131796
-122626
-115832
-124073
-146991
-176476
-214847
-243164
-258092
-248267
-211220
-149860
-81121
-12131
42646
80295
99234
108116
114451
120646
130963
135325
138356
129144
108173
97674
95012
103126
115026
128808
137506
137315
125303
112623
104519
100846
99053
101729
99937
93093
76953
50554
22337
2943
-5644
-10691
-12991
-20139
-30786
-27962
-21711
-21686
-32925
-43527
-47841
-51189
-59711
-61787
-60873
-57725
-52701
-46789
-41441
-31059
-18931
-2527
17723
39656
58808
77241
103888
126306
140717
138987
122611
100333
73988
42918
-15202
-130835
-264198
-303159
-165554
72840
320014
480639
437042
262114
98619
2333
-52764
-145840
-265176
-327747
-291902
-173697
-30827
81459
138874
146974
125758
96051
56422
2561
-50196
-92601
-122539
-134251
-137304
-137131
-133001
-123272
-107418
-83405
-55628
-28129
3928
44373
83678
116438
138696
152783
154236
153210
148668
139968
133671
132288
136911
139286
135615
117664
91785
62626
39648
22852
10126
1780
919
5872
11824
12718
14994
15051
9853
8023
11582
26664
45267
59874
69376
68749
57784
44932
30061
15826
1961
-8424
-20256
-26016
-30115
-42362
-56707
-66219
-71424
-76197
-80013
-79116
-75751
-63112
-42406
-24647
-12104
-10577
-13074
-7929
4704
22646
39221
49683
47601
36398
22114
9327
7401
14910
25157
33596
33453
22914
439
-31863
-67485
-96363
-111567
-123236
-129593
-124510
-115144
-110791
-101601
-76996
-24549
-8707
26602
113318
184638
189053
139291
91296
57672
32134
9561
-13313
-41254
-71043
-107666
-140303
-163436
-179223
-182319
-174164
-153242
-123820
-93179
-71681
-56272
-50281
-49243
-52400
-53677
-52956
-50832
-41214
-28735
-13392
290
12069
22346
33804
41975
55552
74239
89218
100784
108633
111804
99091
77075
56123
37868
25686
17925
4869
-17477
-45032
-77137
-102414
-125523
-142773
-157201
-163552
-160521
-148823
-128055
-101110
-76352
-58601
-40180
-17284
12756
39612
63213
90590
115492
140454
160951
175239
172648
160071
144039
133513
123535
111420
99208
84351
66739
47354
17984
-10731
-30296
-38052
-41684
-44647
-44785
-45371
-45971
-48566
-48462
-41412
-33787
-23567
-12445
-16561
-27378
-38207
-46856
-65428
-124127
-211004
-292819
-321597
-268011
-169163
-75450
13706
131361
272192
391596
464955
505062
550230
603181
630553
581425
452228
285684
123838
12206
-79624
-191201
-286446
-330857
-311056
-250761
-170443
-58999
73109
183610
239846
232584
163444
60910
-44065
-131564
-197372
-227942
-219262
-189587
-156449
-140482
-147277
-170444
-204184
-229112
-237129
-218801
-185701
-132002
-74000
-33653
-18026
-19358
-32079
-33112
-21916
-14817
-14977
-15515
-6114
17086
45025
83413
137639
196132
242462
261921
259826
239495
210071
172011
138862
116144
100468
86562
60114
23973
-17237
-60774
-103546
-137927
-161073
-177548
-189103
-198017
-210614
-214991
-198542
-174954
-163792
-168246
-180138
-192391
-190048
-182377
-168142
-136369
-95032
-71042
-46297
-501
36986
52416
64529
77691
88046
94368
83419
68580
64455
62283
62620
56070
38211
13131
-6760
-19214
-18450
-15013
-9127
10904
41126
73737
101902
127103
132719
133628
135131
140331
144471
153788
170051
189308
203616
209105
209028
202899
195511
188436
184339
174820
166356
154444
132008
90209
6787
-138687
-305782
-358619
-189062
90418
366972
492658
371137
141956
-35939
-162673
-282352
-422571
-512712
-477261
-324324
-114801
76556
198545
237563
224417
205668
188116
148728
81104
3982
-71904
-133101
-176326
-194094
-188102
-160416
-118966
-70494
-24645
15238
46943
73857
96439
111528
123801
133564
133750
120362
104182
87798
64430
26066
-10617
-48772
-73964
-82031
-78276
-60461
-33478
-4841
23276
45213
60554
77390
103888
125534
135371
131654
110847
79758
45792
16224
-4138
-10159
-8807
-2541
-4225
-16582
-36882
-53756
-63983
-71520
-85731
-104976
-119049
-123261
-111744
-89244
-72394
-58835
-51276
-44443
-37356
-38202
-46517
-54382
-52232
-34677
-6595
18019
30318
37251
46550
55983
69238
80309
93079
105427
112254
110294
90541
59070
28886
12659
7993
12358
17361
12508
-1208
-9138
-16946
-20124
-18228
-16701
-28084
-51158
-75846
-109731
-142613
-164902
-176013
-160212
-130101
-94700
-57772
-17008
30553
77844
111878
138634
162544
175243
168999
146781
111641
66579
28069
-4961
-26757
-29862
-24865
-14556
-6969
-1897
2529
3267
-667
-10597
-20629
-30822
-37402
-47811
-63679
-76882
-87261
-88057
-76801
-60957
-46988
-43772
-53147
-63836
-69173
-72289
-74233
-67167
-54778
-37381
-22606
-12253
-4916
-5444
-16768
-35482
-41534
-35435
-20812
-2216
14138
25021
32321
38354
41689
35350
20283
3987
-4570
3179
29431
62271
96158
125411
152003
169163
184928
191479
193439
185698
165637
135798
102182
75476
53057
30350
12866
41
-9119
-18500
-30529
-44183
-58844
-68505
-71652
-70841
-78495
-96594
-111719
-103076
-72509
-63809
-92351
-143979
-184095
-197217
-182356
-160424
-156412
-170692
-171653
-157814
-138253
-104687
-54377
17839
104181
215020
356671
457925
457403
360186
237534
135962
34990
-80841
-180136
-224219
-194521
-105472
17624
151558
258893
312143
309621
268620
196937
104813
-392
-110757
-202489
-268830
-302053
-305506
-286789
-269369
-261302
-259665
-253706
-243876
-230756
-210579
-182025
-143621
-101534
-62558
-47519
-48764
-44121
-25775
-13071
-25449
-58243
-89322
-108625
-105442
-76871
-33152
14789
71618
134481
189921
225056
230062
216413
197153
173780
152501
136844
131703
135723
138865
138974
132921
125471
116964
104744
91364
85939
82130
81284
86908
95859
106463
112438
114519
112198
104608
88348
62014
25678
-14624
-50156
-75032
-93424
-99585
-101274
-93289
-90744
-94511
-108983
-127973
-140119
-145031
-134682
-111797
-81404
-55528
-28578
242
22946
34403
33286
32841
40373
48460
55666
63146
62914
57914
44076
17275
-17576
-45727
-61506
-63699
-52521
-41703
-28972
-15456
889
19158
41418
56054
12977
-114257
-207207
-93228
185225
468058
642298
608016
384335
119278
-83289
-220397
-328901
-399753
-389066
-280184
-104716
77054
207897
267318
257283
207727
136333
60672
-43236
-185468
-300725
-338149
-278891
-160875
-26957
87190
160053
190499
189276
159929
118532
65266
14239
-17151
-25932
-16331
6122
24919
29301
34004
56078
101472
163261
213328
233741
224153
197166
160284
121478
75548
31928
-12251
-48926
-72988
-87062
-96331
-98095
-88304
-62786
-29931
4278
30252
50138
60898
59563
52343
47491
46228
42248
44136
43825
40293
34919
25346
13076
-3076
-21401
-33166
-36278
-37501
-37810
-37193
-31948
-29792
-26373
-18472
-8889
29
6484
9512
3841
-8149
-26979
-49107
-72437
-93612
-101251
-85443
-48091
5734
62908
104652
129180
132676
116818
90881
52414
9078
-33208
-66462
-94324
-117951
-136274
-144637
-142409
-130509
-112283
-88106
-53187
-18519
16705
33422
28093
9946
-19809
-47274
-62456
-54671
-31117
-4610
14065
27089
47509
73014
92043
99424
96439
95871
101004
112468
115713
101228
80906
61708
48405
40261
35826
30443
24308
22119
27359
35690
50414
61530
76441
96027
114631
124100
125069
110414
76464
40014
7223
-16921
-28500
-32788
-38465
-38542
-28622
-18525
-22870
-37967
-45320
-43998
-35956
-22861
-8289
2616
6266
7914
7403
3190
-3922
-12584
-22863
-40541
-65394
-90022
-98784
-91762
-71342
-44782
-17081
12104
37548
60443
76242
91296
106154
118926
129905
133718
134019
130128
127913
122891
123863
125554
132729
135414
130356
108603
61955
4576
-58417
-103594
-131012
-166320
-229402
-304493
-358299
-366836
-329759
-282190
-234787
-168373
-84071
1018
75998
158589
263196
386118
527941
637357
633004
497526
302896
111211
-60570
-212187
-329739
-378294
-334996
-226181
-88954
37618
134617
199258
230022
229333
196613
118347
12023
-96021
-173517
-214845
-220437
-197663
-164818
-135404
-116062
-111979
-117469
-125395
-125029
-103885
-65466
-24224
5947
19585
20046
11600
3062
-14282
-37538
-68641
-92608
-106047
-113631
-106952
-93388
-66650
-29197
14081
46188
66904
84081
94631
101309
100926
89511
72819
61885
54173
40981
35314
43111
59998
72754
85818
99546
118948
136551
157060
170832
178228
178333
166985
154923
140865
123087
98003
75256
56534
33950
6286
-25937
-57301
-84082
-103551
-121296
-138075
-151961
-165217
-174541
-177368
-173079
-158922
-133800
-106776
-70977
-30322
8928
41069
68819
94216
120918
148819
172345
185010
188953
178333
159285
133425
103288
67676
33342
3203
-19067
-32300
-42711
-49084
-38134
-8749
20538
42659
46108
35025
18381
6273
-12777
-90957
-226416
-308115
-215321
-17610
190014
334174
305257
114134
-114915
-279934
-388549
-479411
-536363
-509469
-392906
-222816
-54596
70377
133425
135890
71109
-52554
-178489
-253182
-233952
-143713
-24513
99083
208849
292564
348554
389283
418828
440901
450485
445891
432278
416951
406086
395746
385703
373859
358389
327573
286338
238444
188983
139166
94663
54616
21123
-9874
-42972
-71281
-99000
-132498
-169855
-206984
-240024
-269872
-286921
-292610
-286249
-271421
-245612
-216752
-183469
-150958
-115151
-86139
-71232
-65367
-61510
-52658
-45809
-44465
-38625
-27963
-20790
-24200
-35439
-52825
-67102
-69098
-58524
-45175
-52027
-72503
-100301
-128257
-155482
-179537
-188645
-190497
-184724
-177504
-152142
-106624
-60664
-12591
48224
114126
180790
237931
283126
319051
334923
322367
282508
230908
182583
134562
93573
52489
24509
4355
-7517
7779
41089
76366
94045
82911
55288
17836
-6726
-8282
4738
33131
65931
95944
109911
118940
119467
114146
100649
79131
52943
27003
8446
-3492
-8884
-22392
-62036
-111659
-143908
-166112
-168881
-154717
-126962
-81942
-30222
15643
47328
47998
21267
-9634
-46626
-82389
-114131
-136765
-135736
-121133
-113518
-95037
-69776
-60312
-53331
-53385
-52797
-46962
-47756
-41633
-17966
3858
22108
33022
43309
53534
62599
64209
63744
67314
72016
83863
84408
81064
79831
93085
113218
130042
134944
129716
114758
82597
64021
63693
63499
73904
75221
82264
87984
74593
53198
38311
23844
3980
-1560
-13012
-12177
-2685
1639
2616
-9223
-14773
-7783
9753
26366
39718
56623
64130
72240
68693
66066
71331
61513
36780
11636
-27601
-65939
-77730
-103085
-180463
-286269
-382332
-407847
-348433
-277266
-227656
-176640
-86899
39004
159761
251153
330891
445503
570869
653938
605284
430169
221285
30449
-124506
-242787
-324949
-368192
-360443
-290107
-153292
20286
168844
260649
272374
214160
105989
-23168
-151905
-266107
-338563
-363429
-343150
-296645
-241101
-188132
-163742
-174249
-207563
-240891
-256935
-257661
-234166
-184432
-126797
-72012
-12776
23643
44605
60227
56303
52128
61573
79160
94669
122979
140991
140881
149271
139219
137496
148294
158366
195804
242609
307409
371858
409405
431315
407896
360648
298278
234930
156833
76398
18076
-33949
-61237
-75005
-87919
-92081
-96192
-128139
-168643
-198617
-200465
-185223
-165524
-149181
-127321
-99824
-82477
-72513
-75407
-73603
-69997
-76898
-73593
-66960
-61274
-47514
-26246
-9352
-1691
8994
6248
857
-6276
-22736
-43763
-61907
-67179
-57327
-38598
-3120
31063
62995
85096
104595
113534
120077
108709
88099
67747
66371
64295
64524
64229
59390
55848
63821
68034
73417
84755
90433
88230
94126
96311
87988
61686
-30894
-183529
-262106
-160252
35726
225806
364314
317535
126875
-67911
-192215
-247271
-298766
-344299
-346839
-289484
-193872
-80309
38218
121123
156483
148849
111462
67551
19919
-28358
-60164
-67415
-57326
-33101
-15348
6722
30249
46519
58221
67062
76584
65071
45553
21780
-3002
-14187
-20265
-24526
-35686
-46331
-40530
-16601
21519
71679
134052
179924
218421
249644
292702
335576
351923
338661
303759
253541
190856
124583
67441
24997
-11171
-43113
-55036
-45552
-21869
-7167
4687
25278
32561
43706
55744
68335
74873
63306
23967
-28748
-87612
-142922
-184572
-212132
-222894
-212904
-193506
-161555
-118342
-67271
-18109
30534
53669
64516
69878
70726
43467
29904
11911
-10642
-40441
-55971
-84916
-85079
-104234
-92369
-93876
-76892
-80449
-60127
-54094
-35052
-32950
-34956
-55646
-68690
-59802
-46841
-49157
-16627
-16432
-178
-5474
-10082
-1404
15060
33131
47064
71784
86536
119997
152299
163799
174963
163186
139418
118116
95619
80011
67514
42373
40059
19423
11516
-12881
-33734
-24339
-54216
-53990
-31407
-48037
-19997
-17332
-10394
-6359
26623
32844
52759
73395
69843
81416
75051
59730
45566
18152
-5448
-21886
-47519
-42969
-43574
-46742
-53492
-74333
-77989
-71388
-75622
-64205
-72554
-46136
-37406
-25427
-1396
19543
22901
26372
7751
-12194
-21285
-32934
-37386
-12297
3517
10975
23896
14152
14923
7981
-13884
-20217
-20540
-32643
-30784
-25336
-47536
-70997
-100822
-121591
-152301
-166690
-145975
-102782
-52006
-15938
20688
54643
69198
87624
84951
96492
108620
130640
159676
188020
210394
200082
172799
122255
81156
16953
-103702
-236982
-320386
-337246
-275515
-191151
-137774
-80482
4903
119251
212548
292472
360499
424419
497014
539488
518399
394332
210821
33656
-109181
-223017
-312176
-332036
-286710
-226227
-128702
-21188
95163
211053
263792
252821
192609
88247
-22969
-130378
-202116
-261547
-271106
-240229
-219666
-184541
-165393
-196084
-254058
-296693
-334181
-339341
-316774
-291704
-250593
-203201
-170784
-129614
-118806
-134392
-151981
-161499
-154599
-113566
-53864
1547
55189
103352
149032
183192
213630
230399
258448
294976
336807
383881
406480
417109
418098
395183
354556
321581
286070
258104
231872
193701
179170
124376
16169
-38131
-60408
-115597
-180699
-196016
-170437
-146981
-130729
-127481
-124636
-114304
-129391
-156324
-175469
-179487
-167895
-144314
-110909
-73578
-51623
-36466
-33699
-24884
-4515
12748
25558
30222
28367
23565
26404
38704
50688
66968
77003
80078
75872
66749
66776
66703
65117
64719
60790
53643
46813
27174
9548
162
7216
28415
53643
68604
70068
71549
83472
98660
103971
105243
91668
53076
-14642
-139329
-324041
-461160
-375942
-102972
206644
430521
428639
243002
46434
-78901
-162247
-239389
-323626
-370839
-350797
-264255
-135251
-1154
105174
159174
180491
190597
181748
154029
122034
96574
80923
72371
69393
58643
44399
32490
28813
35172
47140
61853
73726
79532
85804
94668
109686
132041
152579
160570
146343
121971
97456
70053
42926
12174
-13823
-31627
-39909
-44022
-49230
-48371
-40277
-24231
-6375
14004
26424
43409
58711
73688
77229
78201
79629
87987
104324
122121
125117
119234
102858
81492
67219
58296
52176
41382
31423
19441
1779
-25126
-54829
-86532
-107534
-114206
-106334
-98266
-93942
-101507
-112584
-117368
-119770
-119450
-117804
-120879
-126802
-129867
-122904
-111179
-96208
-78875
-63329
-50771
-43981
-36032
-28342
-22833
-14297
-4072
17715
36383
49528
49162
37361
15684
-2971
-8893
-1148
8430
16625
25898
32078
43986
60476
70117
81238
96864
117215
132529
136797
130521
118341
99704
69311
34876
-1915
-44391
-79221
-111199
-127797
-130914
-116631
-93251
-62947
-31395
-7123
7518
12049
5139
-6142
-23169
-43029
-60526
-73555
-81287
-82514
-77070
-64111
-46784
-26941
-4172
15114
31705
44407
51280
53867
52651
40771
22264
5204
-6592
-10002
-6011
-4696
1020
5091
3741
-7959
-23770
-29051
-21198
47
25049
44476
54925
54873
50310
51551
58549
50327
32482
1021
-39670
-84707
-128686
-153055
-151932
-130269
-103399
-84636
-78452
-70651
-55547
-38986
-20567
3494
37528
70900
100281
122533
128953
118669
90958
54564
27396
18018
33375
52481
48551
28355
9015
3717
15446
25148
8068
-24151
-57659
-90703
-120739
-128661
-125036
-113749
-57857
47860
186345
285066
307626
264924
186199
91677
-16543
-132567
-212696
-218067
-139366
-22340
86769
148789
154022
114410
57283
-5962
-70006
-135305
-191038
-229733
-250316
-247293
-228683
-197032
-166651
-143976
-139354
-142329
-140380
-135267
-126326
-110007
-85197
-53502
-27497
-12911
-4201
3261
8460
14791
24520
34205
35344
33336
24469
21855
26197
39123
57661
74861
102151
140059
178334
209123
234186
251017
256829
250884
240805
219532
194818
173456
159512
150335
145444
152089
168972
181251
184317
176478
163471
156416
153932
152406
146616
133236
111419
83878
45356
806
-36722
-72315
-112139
-158613
-200346
-229860
-240894
-233034
-218659
-210964
-216469
-224836
-232913
-234137
-220430
-185483
-146318
-111174
-56022
706
68172
118194
156623
165842
178783
162531
133606
74604
15044
-42997
-87674
-128114
-133317
-123472
-85277
-40209
5808
58958
97175
118495
121006
113767
70966
-17671
-102553
-68035
84374
275499
437758
496108
372829
125458
-106221
-260287
-375170
-489850
-565014
-525622
-376896
-203835
-63516
26008
79036
112801
132336
129464
104029
43542
-58164
-142765
-161993
-116411
-16548
53785
105208
126941
139726
102472
48188
12499
-1022
-10896
-41145
-104742
-152128
-166540
-149457
-119927
-82788
-55327
-2726
15831
54624
51162
83224
79214
96022
95213
77909
78455
41751
60951
33354
63247
71658
61517
106493
95379
174278
169176
159748
163348
107158
142717
86971
66202
45441
-48404
-12246
-58423
-68920
-53176
-140912
-104311
-160952
-198441
-136551
-201680
-144186
-122761
-178393
-91684
-113481
-105180
-3032
-39612
-4281
56986
-6992
4540
-5532
-17726
17946
-13272
675
26144
47241
91175
106544
127061
152759
169368
172638
147077
103151
59823
32337
12567
-8026
1937
-595
9139
17403
36058
33101
42776
37104
19356
34872
-2985
9186
-11167
-32191
-18393
-66777
-48630
-60760
-69964
-37416
-77017
-61291
-63464
-79039
-46317
-72546
-51891
-49441
-80433
-65438
-116877
-119826
-118459
-131142
-94679
-108299
-83594
-62111
-59124
-11411
-23947
1291
16280
29388
78410
80273
108629
105166
120046
140228
115106
117137
87101
84968
69384
37488
13756
-22256
-20344
-35385
-22068
-26232
-11169
-7314
-6416
-14924
-37971
-50944
-71121
-55702
-56070
-28247
-16556
13035
29136
56782
84898
111339
151011
170921
178605
177666
161499
125843
83915
41475
36344
49785
45420
44503
71756
100622
97908
95716
129294
187768
255819
275363
268487
226113
188928
174951
176998
178887
158796
142024
130733
97791
37877
-8824
-21662
11938
15335
-105372
-302971
-436534
-454579
-376842
-253402
-188317
-111401
-9085
68341
150588
209391
245638
365284
498067
534100
452464
215149
-62660
-231667
-358854
-438081
-464847
-489874
-422560
-276912
-119162
79897
204884
258163
293074
203852
93170
-13549
-173591
-263155
-316893
-348242
-295891
-263442
-197218
-119206
-110611
-70033
-72335
-94321
-54459
-64093
-43606
-13847
-27512
17187
25617
28891
79944
47771
59353
58840
2944
30553
11626
9143
55674
15955
42254
87789
81513
139406
125227
83003
92895
27933
8996
18499
-47694
-59349
-74057
-105888
-61679
-76064
-106992
-67910
-82567
-70151
-26029
-56492
-50271
-28527
-35615
24909
66160
68629
115619
96244
73086
93148
65051
97459
147174
136034
173479
189728
176381
228530
243209
266553
325588
292413
284128
268144
174446
126334
45953
-65451
-96202
-164631
-219349
-191794
-212747
-182218
-115041
-119861
-81378
-75422
-136392
-134042
-165649
-201037
-150447
-157895
-148818
-90010
-135945
-155716
-143984
-196462
-182616
-155462
-181929
-129044
-97273
-126100
-84403
-120718
-235072
-275850
-231699
-4244
366981
586896
577523
415929
134415
-70481
-137736
-258819
-343414
-316966
-243556
-50747
146831
228163
301913
279568
200094
173317
85250
34492
13859
-64351
-78724
-102811
-112030
-48767
-24698
44972
101502
123158
172219
156215
155041
151948
161248
205711
195331
223515
236209
261854
275429
263796
265209
223853
218669
182429
169436
141164
119355
96888
57488
38780
4149
9648
-7162
12727
9209
21248
9653
16428
15431
8569
413
-17496
-23676
-49293
-50557
-69014
-59676
-77114
-72591
-96453
-102937
-110961
-115427
-106914
-122193
-84728
-85257
-46311
-21886
-15041
30589
14543
48027
48351
29376
82453
58315
40588
55406
-8316
-23085
-330
-57927
-61125
-10636
-49230
-88232
-26993
-7318
-74096
-45074
47392
21685
-49930
20492
95938
18088
-39920
48954
98688
-15904
-65232
13111
6643
-100186
-84976
-17030
-87351
-131126
-52482
-54543
-91009
-33516
-16572
-27292
55962
97364
71761
93306
79884
23341
40191
56614
63875
102331
95500
76044
95994
86866
55695
55562
50209
42203
61396
83971
105293
115206
109994
101101
93471
90591
93059
93043
81973
66026
43266
12956
-13756
-37660
-57594
-70226
-78411
-81969
-85559
-86143
-78044
-60106
-43616
-41147
-46239
-55796
-61727
-66085
-71819
-80466
-83771
-80544
-67246
-46847
-18221
11446
35479
57846
72145
72473
63629
52894
47308
46772
56494
68006
81372
89986
98351
111518
114790
113014
116893
126011
137180
142645
147989
151378
150552
136145
103717
52448
-16151
-82421
-128002
-142477
-130417
-144975
-226692
-337048
-404457
-396337
-318031
-228276
-165856
-105676
-13337
104218
214237
300434
359624
430243
522001
568469
501749
338674
120240
-74369
-196746
-275502
-301396
-248363
-117830
37321
188991
323871
398463
407277
369195
309981
251520
180639
89462
-6871
-89331
-149459
-192096
-226555
-260856
-293770
-320498
-327356
-310365
-284323
-246391
-205086
-162977
-120621
-83960
-60285
-47956
-36469
-39452
-53581
-64795
-71467
-82321
-89004
-75558
-43167
-4842
27687
53083
67756
83154
92963
91698
81763
71453
75621
87654
103986
120792
133448
140784
144446
140468
133075
130821
139218
152581
161918
167379
167179
179741
201829
198224
169765
140578
119698
104871
104347
107431
100804
86531
59149
25078
-13667
-51225
-82372
-104579
-111607
-106000
-96537
-97436
-100384
-94607
-76264
-60574
-56932
-63771
-72209
-77088
-76077
-73612
-74306
-66631
-45837
-24432
-23322
-41289
-62347
-77296
-80152
-70100
-57391
-54559
-53802
-55742
-61686
-55267
-44674
-30414
-17000
-2714
14929
37676
52662
29313
-28772
-86261
-26689
159254
379231
549148
555247
379503
160837
7877
-83424
-167039
-244170
-261679
-200461
-112626
-37784
15551
37911
45960
59318
81503
90298
78577
54910
26623
4244
-10029
-13463
-21822
-31531
-49062
-68701
-77066
-76802
-68727
-57559
-46912
-33939
-17429
10099
44404
88748
137838
179724
211867
226048
230056
227303
222858
224374
219308
211299
186559
154891
114111
67087
18623
-28981
-65889
-89521
-98396
-96749
-95767
-93642
-89497
-80016
-58456
-36302
-14971
3314
11514
9999
-3041
-11662
-16914
-18897
-20690
-25671
-27737
-39651
-52247
-68582
-84811
-92220
-88583
-76300
-65471
-59182
-57332
-56103
-51875
-41922
-35961
-39921
-44699
-49791
-53026
-53047
-49035
-45762
-38611
-26035
-13157
-461
18013
41404
68124
90748
105017
113508
115614
115967
109197
95832
85628
81661
89438
96148
94087
81685
69086
68345
69771
67077
60928
49779
35849
18392
-4036
-29318
-53448
-76282
-102360
-128906
-149196
-160524
-167288
-157586
-143059
-122270
-102326
-81983
-60304
-38426
-20909
-6184
8929
27429
52699
79929
107526
127915
137917
138632
130712
121396
113123
113546
115316
112991
112530
109858
104540
91143
68511
46942
28006
10045
-6344
-24880
-44771
-67214
-85635
-102274
-115871
-133170
-151129
-169404
-179685
-183393
-184369
-182641
-182551
-185771
-186066
-185879
-172921
-149724
-117003
-75999
-37502
-1094
31902
62145
84734
97204
105729
114586
126636
142811
157121
177113
200595
220505
241610
273255
303301
315385
296964
267831
231571
195179
157428
132028
112409
95666
71505
27673
-36091
-113491
-187879
-242129
-263216
-257782
-277235
-334853
-388084
-404054
-361894
-288729
-237427
-220750
-200498
-149154
-78351
1516
90488
181693
306614
454859
542051
541879
442317
262506
64690
-91512
-189192
-259077
-281553
-234007
-126223
14289
138964
216603
234504
210979
169144
114411
43870
-34031
-99694
-139641
-149709
-149173
-155822
-168716
-191106
-222231
-256443
-285183
-296839
-291151
-263894
-215462
-157459
-97020
-43878
-7141
15093
35536
59616
91068
127313
165092
203439
235044
256954
267913
269078
268706
273586
276424
274696
267599
256599
236108
204385
165072
118315
78374
43814
24421
18515
20429
18441
7880
-6176
-19080
-25692
-33545
-41561
-43193
-34479
-16913
5197
19118
19699
2413
-28457
-59877
-91398
-116624
-140087
-163979
-186179
-206021
-222101
-231769
-233967
-235242
-235636
-240091
-250861
-261096
-265815
-257919
-242754
-212161
-174549
-128964
-81432
-30684
278683
257268
235012
222184
219279
222506
229553
237599
244263
224393
145408
36992
12048
126609
333120
524700
596178
465743
192101
76121
68898
23173
-30936
-82301
-138713
-225267
-320286
-380226
-376181
-316652
-221569
-108536
-2692
82238
141988
185786
227430
262392
294881
320289
343063
359488
377303
384343
367983
327323
269001
213372
159052
105259
65656
44126
30919
24475
19114
7799
-16972
-54694
-92126
-119321
-128885
-122567
-102341
-83826
-75352
-72031
-71232
-50862
-35165
-38175
-42442
-21600
29049
92113
153179
212168
260828
256408
209616
167655
153449
135061
74928
-25525
-146902
-253562
-316322
-306562
-243527
-177984
-152309
-188934
-246574
-269172
-247522
-205104
-164007
-145249
-126638
-84830
-34877
8176
46198
84779
108426
106141
76160
25453
-29379
-74911
-97722
-95004
-73388
-30484
17604
64446
111118
152683
191097
212765
215463
202274
168376
121586
67997
30223
22743
20932
16211
12319
24675
31478
13463
-16062
-41245
-57285
-62852
-65852
-66367
-58099
-36132
-13955
-22280
-68417
-89411
838
169942
297435
318655
240308
117318
1082
-85284
-133347
-143276
-124448
-85472
-44249
-7997
15480
30714
37549
27278
10283
-2839
-8874
-15229
-24941
-20655
-2308
23180
27600
13742
-11278
-42827
-77894
-119321
-158609
-186785
-203396
-203779
-205093
-211909
-196168
-151842
-108911
-90920
-89244
-79901
-52181
-16942
26750
68024
107046
143676
164491
162697
150375
138523
142778
163160
177658
172079
149739
111669
73531
54981
42676
29463
33450
44123
42122
-19661
-148601
-291751
-384369
-390525
-339599
-290149
-257044
-212360
-118097
-1846
114908
201797
272554
351064
398019
341283
163003
-90860
-324715
-471709
-523253
-481461
-360429
-204201
-65802
27224
81220
118841
147238
153389
136920
105968
60144
19478
-7787
-19488
-35211
-56913
-74600
-91233
-104147
-113829
-122062
-127705
-123842
-108990
-79626
-46847
-24720
-304
25743
45462
46598
43669
37874
29041
21023
33108
59931
83108
112146
156019
204413
240390
273963
292790
296779
275215
229678
178042
127792
76905
28143
-677
-7771
-6057
-15199
-15877
-27425
-39547
-36556
-13182
-7635
-8356
-15554
-35730
-56815
-76051
-92946
-118173
-142227
-164498
-178319
-187772
-180649
-160333
-152314
-160629
-170252
-174710
-169932
-156295
-136629
-114136
-98556
-88180
-69372
-41612
-5717
25206
57504
80354
82973
68127
59228
54493
65392
87464
112214
123674
118083
103796
78703
45049
10998
-13826
-29375
-25542
3238
36471
72054
90534
109374
120526
124087
98128
37425
-14606
19670
129671
264469
371162
379332
251188
66920
-74671
-146485
-200404
-254041
-274072
-230352
-132387
-30144
45259
82217
74624
41298
14478
-7657
-31239
-68564
-127830
-176864
-194627
-177970
-130367
-71926
-17821
20405
36544
41288
42780
44459
43475
41514
43504
56730
70551
83778
100061
111416
117308
118483
110727
99221
84728
73521
75217
79126
87716
97332
113544
119528
124618
122928
119888
116491
117090
116614
115376
119938
135302
154644
160926
159894
148091
138451
124179
108855
88921
63178
48774
50847
61757
70802
66919
41794
8833
-23772
-41973
-41430
-35513
-27081
-24216
-24756
-32226
-41174
-54882
-67519
-69577
-67698
-54752
-38283
-23694
-21162
-34016
-54120
-69558
-71218
-60986
-47990
-35638
-32997
-31944
-19224
21299
63489
69738
16542
-43212
-47321
-956
58291
112392
154863
182253
192702
182990
160073
135247
111737
94551
90642
88646
78598
56064
24405
-5581
-34337
-54691
-75189
-89183
-90286
-79808
-71286
-71728
-80494
-75889
-60858
-43716
-18057
22345
66748
104377
133602
147435
153212
155278
144990
122969
95142
56898
9671
-26872
-44292
-49011
-59445
-79414
-101779
-109719
-94511
-72854
-68333
-77954
-84509
-88157
-75881
-57831
-45724
-29193
-13051
-8085
-23956
-46747
-72168
-85956
-78789
-67171
-54592
-27246
11541
48579
74461
86919
100958
132685
180499
232283
273599
299454
309764
327506
344423
342349
309373
242130
161858
77302
-15362
-99873
-157864
-174299
-144129
-107279
-130519
-230823
-339467
-391021
-368562
-299335
-252263
-233830
-204356
-143261
-71299
-16112
16540
101701
263948
379818
392786
314231
147188
-43687
-171939
-236407
-272444
-278404
-240107
-143659
584
158807
285918
352106
345316
278922
180506
84049
-930
-66196
-101817
-111416
-101885
-87245
-76291
-76904
-83634
-100053
-117744
-126662
-125306
-113264
-102032
-85397
-50596
4684
56240
80753
66307
24218
-28679
-54620
-33258
9356
41644
50677
42923
13399
-13792
10558
91969
168891
194521
185596
165076
142110
129519
123254
116456
103150
92278
85678
77243
66116
42649
5483
-37562
-73302
-97272
-105539
-100842
-84269
-66574
-50411
-41394
-41306
-52102
-71734
-96789
-124811
-149685
-170017
-186545
-188846
-190673
-193039
-176366
-140175
-104952
-66511
-27741
6413
26049
37178
44304
51772
74721
104008
128318
149223
167751
176736
189174
210412
227027
229041
211416
173119
113904
47491
-17633
-64019
-99086
-130618
-153553
-168057
-172094
-167499
-151014
-119336
-73869
-22289
16925
35705
19101
-46409
-127857
-96608
66339
282956
443353
433486
232788
-8716
-162283
-235847
-289867
-339441
-342237
-268794
-137032
13262
148335
244981
295829
298123
243067
144693
39827
-12134
6328
75346
158730
221901
245118
223788
181241
138083
111405
101761
98491
85733
57944
23498
-9902
-38647
-56156
-61888
-57777
-48539
-34702
-24363
-22606
-28164
-30436
-31367
-21998
-7816
19051
47493
71965
87509
96122
98704
91298
87427
86677
76743
67245
58128
58200
57716
59918
65703
60904
57618
58037
52862
34429
9189
-5374
-8885
-9265
-1784
6656
15013
17128
5286
-11575
-16143
-3281
13302
25383
33900
37082
40289
41331
39140
33039
23195
18179
15048
11033
-472
-20031
-41736
-60991
-77263
-93862
-107134
-107501
-104666
-93236
-81564
-74198
-71563
-67737
-64784
-58884
-43809
-29407
-12517
7561
30244
46338
55701
63616
66514
76724
93276
112421
122619
120363
105318
85023
62882
37625
14157
-11009
-34086
-57634
-75479
-87129
-89087
-92252
-88504
-84182
-85686
-84514
-87765
-86186
-73600
-49870
-24227
-2473
18133
35134
52901
65739
77934
90200
94395
92971
82121
65144
43621
21366
4211
287
-887
-2681
-712
-2939
-7804
-14124
-18043
-24264
-35716
-50099
-70522
-85494
-100740
-104019
-98978
-82222
-58085
-29570
5767
39137
69493
100496
129734
147508
153159
145822
135949
126634
111402
86944
54928
18895
-11509
-35421
-45441
-32101
-45749
-137213
-257472
-323134
-285637
-149767
-21794
36624
76703
152518
252305
317469
331488
367902
445289
508222
475911
311133
63939
-166204
-310544
-391089
-434272
-417916
-329919
-186351
-21543
120260
220108
262591
254844
202606
112375
-9271
-139308
-232024
-262101
-231839
-168199
-105666
-63907
-48781
-54366
-65171
-66777
-52753
-26269
8789
57379
102736
138041
152710
144373
112974
61746
-2338
-65227
-106437
-130556
-136761
-135097
-125497
-106341
-79091
-54030
-28639
2737
28364
47674
58219
69351
78591
89785
97639
103525
111747
113096
105453
105624
129883
180225
224409
235454
207931
143186
49760
-38442
-118027
-186833
-226449
-228682
-189122
-132237
-80788
-42164
-17357
2893
16899
33017
43850
47777
37873
22236
4191
-17751
-40895
-68430
-101559
-142222
-174513
-194237
-199309
-193113
-171374
-142147
-110468
-81694
-58712
-33735
-11648
3390
15104
21825
25836
34989
40289
38925
38761
43166
49148
48231
29964
4896
-9307
-10826
9721
33879
68816
108429
144881
172104
173134
127509
20069
-135937
-196752
-50847
231395
505541
629661
512544
270173
66749
-63552
-162482
-264415
-317281
-273179
-173357
-73586
-253
18798
14059
10870
26371
58459
77544
82794
62231
24094
-12867
-42999
-64533
-83799
-102897
-113137
-109887
-91677
-68843
-42285
-15085
6412
27058
57108
96176
137618
166204
180371
174146
150569
114550
75786
40916
17791
9041
13223
25666
36871
36868
26134
19731
23421
31251
38894
42245
45741
49619
53396
60301
70834
83368
89866
93195
94604
90475
75421
47543
3149
-48205
-95605
-132029
-152036
-157315
-149779
-131484
-103499
-71575
-35856
-3867
30331
64068
91473
107037
106569
94230
80761
68284
67113
77596
96447
116212
124088
121269
108037
84485
56746
25809
-5023
-35039
-60978
-84126
-108606
-134162
-151604
-158605
-157852
-149189
-138832
-126389
-106762
-82982
-67333
-55646
-55373
-58427
-55501
-45714
-25994
7584
53186
103885
145753
164804
161779
149051
132253
116600
100579
76884
57134
57248
65598
62468
30337
-36316
-138159
-224812
-241653
-198453
-135559
-78334
-45848
-42861
-67236
-97341
-107816
-108028
-109623
-119338
-128938
-132148
-128502
-119698
-119282
-124257
-135439
-135129
-108217
-62711
-12084
38318
66455
43502
-1757
-22712
1653
69491
161255
246579
302406
322708
315581
295894
276695
258224
241995
227976
196145
143541
87680
35718
-19314
-69303
-109185
-133980
-120809
-95217
-121115
-203888
-295187
-331020
-274780
-164782
-101030
-101946
-95316
-31645
82928
212253
343209
479678
630083
700164
592133
355707
104490
-95418
-237515
-354552
-437129
-438096
-343576
-178456
-3556
129029
195466
207023
188945
145436
69817
-38776
-163302
-256756
-285887
-267792
-226739
-185842
-162902
-166045
-177700
-190824
-210512
-226631
-243659
-248839
-234469
-199737
-157113
-133067
-125332
-132380
-140554
-142100
-144727
-143560
-140888
-126986
-105943
-77069
-39109
2028
50460
103764
162904
224610
283128
329036
365384
391548
411909
419368
411262
382576
342069
301868
255693
205822
160746
112868
53984
-5266
-48171
-70419
-73332
-65702
-58494
-55016
-57488
-60897
-69046
-78304
-91515
-105607
-125339
-156616
-187535
-210392
-220462
-221397
-214465
-195581
-174251
-147344
-122689
-98784
-76440
-63023
-53198
-43571
-30066
-12239
4946
27659
50596
69775
86930
104820
120208
125530
128984
123874
112750
103909
100323
107934
125144
141491
157129
167073
171094
171669
180313
196504
208556
214442
200258
159996
79258
-67815
-224179
-212329
15278
317923
580146
657731
486985
195253
-62747
-223674
-338347
-423491
-441837
-372347
-240521
-79607
68032
153109
163062
93275
-50083
-197282
-305300
-336606
-297382
-219622
-132742
-57536
-5494
30011
57005
81343
101328
112262
112137
103903
94614
88839
86779
82771
86086
97064
107542
117941
132711
154516
180529
204978
209929
175001
137376
105095
67241
31955
18309
30139
51940
68843
65847
41506
14102
-15620
-41281
-61029
-73962
-77323
-76938
-70872
-56076
-39138
-16059
4087
20506
35496
44646
45758
37466
38801
51651
77391
106539
125968
129891
117423
102386
86858
72209
63405
48019
25709
-3539
-31117
-50497
-56297
-56369
-58191
-68292
-88469
-106072
-120919
-129599
-131114
-143689
-162604
-170881
-178498
-187791
-194059
-188540
-168390
-141493
-114919
-91512
-77791
-74469
-78252
-83442
-84745
-79316
-63427
-41543
-35860
-48431
-65135
-76103
-80194
-79238
-67143
-48445
-25957
-14096
-7327
1224
10070
20414
24778
29259
38256
51607
72558
93915
115741
145196
178391
204152
220936
230932
237358
241053
241014
240759
241599
243045
232959
212651
183528
146186
108776
65701
23114
-19069
-57141
-78641
-88170
-90059
-100169
-119241
-137992
-140969
-121490
-84869
-49509
-24234
-11015
-5139
4798
17633
32233
33478
23632
-1578
-37732
-81816
-120241
-138474
-135678
-119501
-92317
-78103
-137636
-266902
-371837
-386527
-315860
-210135
-140015
253753
385501
539853
679006
685660
510235
233844
-33629
-244009
-395555
-469211
-429674
-270789
-49036
164319
311657
374278
372608
342904
301587
241327
153167
50269
-48177
-114485
-144452
-150743
-141091
-123964
-110776
-105817
-106747
-115369
-130457
-152515
-166911
-172837
-160759
-137099
-111919
-87184
-64838
-64068
-98001
-148037
-192302
-214293
-208497
-185765
-155820
-127904
-103305
-74604
-38746
6604
50623
86998
116819
138739
152239
157998
151718
142499
133306
129333
137491
156128
179828
198946
213428
226285
233936
235218
227595
211961
192576
169167
131408
79718
19516
-39946
-88632
-121971
-149019
-162368
-169161
-168630
-160451
-155729
-152425
-147328
-140707
-132262
-117922
-104160
-95536
-92977
-98846
-112045
-123214
-134137
-141879
-147254
-155176
-148571
-125909
-90016
-46983
-1352
44465
84563
126284
168798
208446
241624
253268
245779
226856
189514
141408
86179
33797
-12042
-46087
-63689
-57276
-27499
12957
54822
64761
8498
-108736
-174250
-60509
178123
428409
586388
518181
289973
67551
-100796
-217295
-309424
-363615
-344179
-235544
-70321
100524
226274
284743
241381
127099
18839
-40499
-21941
49696
137182
207882
235728
225399
188643
141986
100026
60667
22143
-21682
-63864
-99112
-116410
-102607
-65299
-20086
20676
51600
71570
81401
83960
77688
62953
42542
21396
4193
-8399
-24521
-44696
-65451
-83174
-101450
-112786
-111447
-107626
-95316
-72876
-37353
7463
50859
89978
117207
132793
136818
138029
137053
131105
116885
99084
84137
70135
57358
41978
29168
25343
33967
47317
62340
71879
71523
55931
36730
20728
9245
11491
6751
-3416
-17354
-25311
-31252
-37190
-46309
-61987
-81559
-105564
-127386
-143705
-161963
-175971
-183487
-182114
-169784
-145084
-116368
-83601
-51944
-26538
-3475
13779
20869
22859
25721
26101
25790
28982
45008
66488
82884
94359
103168
116972
136707
167683
202682
230385
243649
244489
240290
227118
200328
170734
130574
83964
44758
12114
-5547
-12772
-13014
-9359
-8069
-10311
-17616
-32043
-51021
-70414
-90442
-113029
-130181
-135131
-131067
-129324
-134394
-146011
-163787
-182127
-193253
-187904
-161581
-121056
-78036
-40866
-11426
11234
36403
68533
101205
122165
134175
137494
134524
128811
123877
120298
116037
110414
100388
95723
90356
84097
71441
50094
10544
-35410
-78709
-105678
-116392
-181193
-310427
-425170
-462819
-401054
-296287
-221611
-162463
-65769
79813
239790
372089
470131
576819
697384
749329
643728
375601
61387
-172604
-313814
-398622
-429673
-381242
-247977
-65409
116191
253701
316630
310854
263570
199018
122526
40860
-26004
-64950
-72972
-67164
-58546
-58216
-71251
-93461
-124183
-158877
-185861
-197067
-185926
-159424
-125699
-95067
-76345
-75064
-89907
-116268
-144039
-172485
-193127
-200833
-194841
-176093
-154974
-133866
-112267
-87812
-64291
-35879
-7217
19375
42004
57308
70446
82235
92690
104993
123161
141420
156014
167029
175006
182776
190019
199534
205248
196549
174758
150928
133318
117571
102079
80169
53522
28265
13024
2414
-4947
-7255
-772
13649
21645
29530
26706
14421
-1055
-20778
-32891
-41694
-40078
-31018
-21503
-12872
-10809
-12229
-14834
-17465
-18679
-16717
-16977
-26751
-47951
-70087
-87476
-99366
-107876
-114231
-116484
-118832
-117631
-111359
-102490
-85547
-62777
-35797
-13795
4189
18227
30366
41293
50543
61831
72413
77569
82180
80193
54876
-18847
-101028
-75680
94586
339407
563433
628684
471454
219212
5280
-131699
-238860
-334673
-377616
-369981
-317167
-241827
-157892
-79739
-18697
22683
46068
50623
33443
4884
-21567
-37572
-48087
-54677
-58843
-58253
-53151
-33949
-8479
20486
50598
74959
92417
101260
112807
126555
139186
148809
158409
168547
169558
168899
171493
177506
179698
174746
165207
158453
155259
151352
145294
133258
119408
101746
79509
57850
35378
18189
5203
-2961
-12974
-23394
-29119
-27474
-20666
-12231
-4791
2646
7091
11439
18021
22074
26668
38164
45919
46279
37631
25486
15014
2800
-8746
-25529
-46637
-67606
-85607
-91546
-90138
-82010
-74631
-64680
-56924
-46991
-32836
-15375
-1420
7848
6133
6923
17643
31463
45007
63189
75111
78791
77550
73290
74586
81538
89931
94149
89046
70670
42438
7607
-24415
-46461
-60201
-71439
-81084
-81504
-76694
-68264
-54517
-35872
-19424
-6307
-7122
-18398
-38204
-59759
-76250
-86299
-91071
-92907
-84756
-74417
-59729
-41493
-19836
3404
15108
23826
